0.290527	
0.289917	
0.297241	
0.267334	
0.229187	
0.240479	
0.254517	
0.249939	
0.221558	
0.194702	
0.221252	
0.248413	
0.204163	
0.205994	
0.236206	
0.270996	
0.290833	
0.250854	
0.239868	
0.226746	
0.186462	
0.190125	
0.206299	
0.198364	
0.205078	
0.215149	
0.249329	
0.267334	
0.256348	
0.253601	
0.236511	
0.26123	
0.238953	
0.241089	
0.261841	
0.267334	
0.251465	
0.223694	
0.237732	
0.193176	
0.221252	
0.249023	
0.283203	
0.280762	
0.180969	
0.128174	
0.223694	
0.304565	
0.252686	
0.21637	
0.201721	
0.213318	
0.248718	
0.250244	
0.209656	
0.198669	
0.216675	
0.320435	
0.254517	
0.203857	
0.185242	
0.194702	
0.217285	
0.227661	
0.188904	
0.1828	
0.18219	
0.196228	
0.226135	
0.248718	
0.258179	
0.264282	
0.254517	
0.263367	
0.263367	
0.235901	
0.222778	
0.266113	
0.252075	
0.250244	
0.248718	
0.249634	
0.21637	
0.211792	
0.213623	
0.234985	
0.247803	
0.209045	
0.201416	
0.210266	
0.236206	
0.218811	
0.20874	
0.209351	
0.205994	
0.213013	
0.189819	
0.193481	
0.191956	
0.231628	
0.254517	
0.244141	
0.256348	
0.251465	
0.289917	
0.236511	
0.23468	
0.231018	
0.21637	
0.204468	
0.233154	
0.22644	
0.230408	
0.256348	
0.266418	
0.241394	
0.247803	
0.240479	
0.224915	
0.212708	
0.219421	
0.235596	
0.253601	
0.228271	
0.249023	
0.231628	
0.232849	
0.256042	
0.274048	
0.299377	
0.252075	
0.207214	
0.232239	
0.250854	
0.239258	
0.23407	
0.244446	
0.220947	
0.20813	
0.234375	
0.221252	
0.240479	
0.206299	
0.255737	
0.317993	
0.305481	
0.226746	
0.276794	
0.302734	
0.265808	
0.237732	
0.218811	
0.176697	
0.194702	
0.223694	
0.20813	
0.22644	
0.225525	
0.210571	
0.223083	
0.277405	
0.260315	
0.247192	
0.231628	
0.22583	
0.204773	
0.236816	
0.270081	
0.273132	
0.26947	
0.244446	
0.278625	
0.266418	
0.25116	
0.254822	
0.284119	
0.292053	
0.254211	
0.245667	
0.249939	
0.237732	
0.262146	
0.315552	
0.278931	
0.230408	
0.247192	
0.252686	
0.240479	
0.228271	
0.236511	
0.233459	
0.219421	
0.220337	
0.227356	
0.213623	
0.209961	
0.20752	
0.217285	
0.204468	
0.227661	
0.258179	
0.236206	
0.242615	
0.256348	
0.216064	
0.195007	
0.195313	
0.177307	
0.169983	
0.221558	
0.263062	
0.191956	
0.189209	
0.205383	
0.220947	
0.177917	
0.19989	
0.241394	
0.213623	
0.166321	
0.158386	
0.157166	
0.167847	
0.186462	
0.179138	
0.175171	
0.196838	
0.257568	
0.264587	
0.201721	
0.201416	
0.203247	
0.246277	
0.257568	
0.189209	
0.201111	
0.19989	
0.204468	
0.192261	
0.203552	
0.235901	
0.215759	
0.180054	
0.172119	
0.25116	
0.264587	
0.264893	
0.271912	
0.195007	
0.155945	
0.146484	
0.195923	
0.238342	
0.210266	
0.237732	
0.209351	
0.228882	
0.244446	
0.225525	
0.195618	
0.145874	
0.16571	
0.187988	
0.236511	
0.236816	
0.238953	
0.267944	
0.30304	
0.281067	
0.24353	
0.256958	
0.319824	
0.281067	
0.274048	
0.333252	
0.31311	
0.337524	
0.396729	
0.401001	
0.398865	
0.409546	
0.406494	
0.413208	
0.475769	
0.514221	
0.465698	
0.46936	
0.526123	
0.514832	
0.525513	
0.645142	
0.610352	
0.491943	
0.424805	
0.39032	
0.431213	
0.421448	
0.448608	
0.465393	
0.490112	
0.425415	
0.410767	
0.430298	
0.36438	
0.271912	
0.223694	
0.1828	
0.178528	
0.141296	
0.173645	
0.119324	
0.0531006	
-0.0201416	
-0.0457764	
-0.00427246	
-0.00671387	
0.0177002	
0.0219727	
-0.00701904	
0.0415039	
0.0509644	
0.0302124	
0.0491333	
0.0708008	
0.0863647	
0.0790405	
0.103149	
0.101318	
0.150757	
0.119324	
0.0836182	
0.116577	
0.145264	
0.179138	
0.187378	
0.205688	
0.188293	
0.171509	
0.131836	
0.204773	
0.221558	
0.207214	
0.218811	
0.166931	
0.19043	
0.230408	
0.277405	
0.28717	
0.278015	
0.235596	
0.192566	
0.189514	
0.1651	
0.231934	
0.261841	
0.220947	
0.189819	
0.198975	
0.220947	
0.223694	
0.249023	
0.250854	
0.230408	
0.197144	
0.171204	
0.204163	
0.262146	
0.251465	
0.184937	
0.157166	
0.216064	
0.232239	
0.227356	
0.223389	
0.172119	
0.162659	
0.195007	
0.238647	
0.245667	
0.249329	
0.254517	
0.249023	
0.238647	
0.220642	
0.244141	
0.241089	
0.20813	
0.239563	
0.231323	
0.24353	
0.270691	
0.254211	
0.267639	
0.203552	
0.211487	
0.210571	
0.220642	
0.216675	
0.218506	
0.263977	
0.274658	
0.21698	
0.228882	
0.213623	
0.171509	
0.199585	
0.169067	
0.148926	
0.157776	
0.192871	
0.30426	
0.233154	
0.200806	
0.20813	
0.187683	
0.257263	
0.270081	
0.296326	
0.284729	
0.254517	
0.267944	
0.258484	
0.215149	
0.209351	
0.220032	
0.233765	
0.247498	
0.256653	
0.280151	
0.288086	
0.242004	
0.196533	
0.171509	
0.221863	
0.2005	
0.241394	
0.230713	
0.238342	
0.254211	
0.227966	
0.227966	
0.214233	
0.237122	
0.238953	
0.245667	
0.281372	
0.231934	
0.21759	
0.240173	
0.273132	
0.322266	
0.297852	
0.22644	
0.220947	
0.210266	
0.25177	
0.248413	
0.253296	
0.222473	
0.172729	
0.183105	
0.187988	
0.178528	
0.25238	
0.282593	
0.2948	
0.325317	
0.281067	
0.229187	
0.253906	
0.295105	
0.277405	
0.247498	
0.229187	
0.221252	
0.254822	
0.230408	
0.224609	
0.263977	
0.273438	
0.26947	
0.266113	
0.25177	
0.258484	
0.282288	
0.279846	
0.279236	
0.293579	
0.346069	
0.321655	
0.311584	
0.3125	
0.278015	
0.252686	
0.234985	
0.242615	
0.286255	
0.265198	
0.271301	
0.307312	
0.279541	
0.30426	
0.255737	
0.25238	
0.255432	
0.215454	
0.266113	
0.281372	
0.259705	
0.264893	
0.241699	
0.29541	
0.309753	
0.264587	
0.304565	
0.293579	
0.292053	
0.307617	
0.257263	
0.258789	
0.300598	
0.307312	
0.297241	
0.235901	
0.249634	
0.302124	
0.310974	
0.274048	
0.246887	
0.267639	
0.262756	
0.282288	
0.279541	
0.248718	
0.267944	
0.258484	
0.25177	
0.273743	
0.297852	
0.293884	
0.243225	
0.212097	
0.230713	
0.246582	
0.262756	
0.354614	
0.335999	
0.261841	
0.234375	
0.228882	
0.249634	
0.243835	
0.274353	
0.27832	
0.209045	
0.205688	
0.175781	
0.203857	
0.210876	
0.205994	
0.213318	
0.241394	
0.229492	
0.205383	
0.220947	
0.24231	
0.266418	
0.261841	
0.234985	
0.153809	
0.185852	
0.188599	
0.195313	
0.149231	
0.163269	
0.179749	
0.171509	
0.145874	
0.155945	
0.20813	
0.213623	
0.202026	
0.1297	
0.140076	
0.165405	
0.195618	
0.223389	
0.247498	
0.123291	
0.088501	
0.124512	
0.148621	
0.134277	
0.128479	
0.121155	
0.155029	
0.18219	
0.16449	
0.150452	
0.150757	
0.142822	
0.130005	
0.162048	
0.161743	
0.140686	
0.1297	
0.163269	
0.177612	
0.146179	
0.121765	
0.146484	
0.148621	
0.141907	
0.155334	
0.167542	
0.144043	
0.119934	
0.161743	
0.216675	
0.162354	
0.143738	
0.132141	
0.14801	
0.132446	
0.127563	
0.126038	
0.163879	
0.12085	
0.0799561	
0.105591	
0.0900269	
0.102539	
0.183105	
0.251465	
0.228271	
0.192261	
0.131836	
0.168152	
0.189819	
0.110779	
0.160217	
0.209961	
0.148315	
0.114441	
0.137329	
0.147095	
0.188599	
0.187988	
0.184631	
0.161743	
0.174561	
0.126648	
0.115662	
0.149841	
0.166321	
0.155029	
0.176392	
0.176392	
0.172119	
0.174561	
0.162354	
0.148621	
0.147095	
0.170898	
0.186768	
0.20874	
0.161438	
0.189819	
0.180359	
0.192566	
0.1828	
0.169067	
0.133667	
0.166321	
0.18158	
0.168762	
0.14801	
0.155945	
0.187988	
0.165405	
0.13855	
0.181885	
0.23468	
0.238953	
0.197754	
0.155334	
0.1651	
0.219727	
0.216064	
0.179443	
0.119934	
0.189514	
0.195618	
0.204468	
0.189209	
0.167236	
0.207214	
0.174561	
0.205383	
0.218811	
0.183716	
0.117188	
0.119324	
0.167542	
0.201721	
0.164795	
0.108032	
0.151062	
0.19043	
0.204468	
0.194092	
0.166931	
0.170288	
0.193787	
0.212402	
0.188293	
0.218811	
0.218506	
0.185547	
0.152588	
0.0909424	
0.148926	
0.196838	
0.143127	
0.158386	
0.186157	
0.186768	
0.16449	
0.178223	
0.217285	
0.197449	
0.213928	
0.209961	
0.206299	
0.192871	
0.184326	
0.184937	
0.191345	
0.183411	
0.160522	
0.16449	
0.188293	
0.250244	
0.241699	
0.202026	
0.159302	
0.180969	
0.183716	
0.246277	
0.202026	
0.201721	
0.223999	
0.245667	
0.210266	
0.166016	
0.204773	
0.194397	
0.187378	
0.168762	
0.163269	
0.165405	
0.215454	
0.171204	
0.133362	
0.142822	
0.134277	
0.133362	
0.18219	
0.215454	
0.249634	
0.230408	
0.208435	
0.2005	
0.201721	
0.230713	
0.229187	
0.202637	
0.179749	
0.211182	
0.202332	
0.209045	
0.220337	
0.196533	
0.183105	
0.153809	
0.182495	
0.192871	
0.181885	
0.169678	
0.223083	
0.185547	
0.186157	
0.217896	
0.225525	
0.168152	
0.140686	
0.148315	
0.163879	
0.183411	
0.209045	
0.178833	
0.18158	
0.190125	
0.183411	
0.184937	
0.195313	
0.201416	
0.213013	
0.207825	
0.196228	
0.195313	
0.203247	
0.185242	
0.183411	
0.145264	
0.151062	
0.134583	
0.105896	
0.139465	
0.182495	
0.173035	
0.217285	
0.186462	
0.194702	
0.198669	
0.247192	
0.202026	
0.228882	
0.305786	
0.198975	
0.204773	
0.247192	
0.233154	
0.27832	
0.227356	
0.12085	
0.102844	
0.173645	
0.181885	
0.124512	
0.140991	
0.180969	
0.188904	
0.240479	
0.227966	
0.193787	
0.15564	
0.180664	
0.207214	
0.224304	
0.180664	
0.154114	
0.179138	
0.175476	
0.180054	
0.177612	
0.186462	
0.195313	
0.170288	
0.167236	
0.151367	
0.155945	
0.163879	
0.17334	
0.166931	
0.162048	
0.16449	
0.193787	
0.248108	
0.183105	
0.151062	
0.178528	
0.168762	
0.208435	
0.23407	
0.286865	
0.241089	
0.157166	
0.154114	
0.170288	
0.183411	
0.20874	
0.1474	
0.1651	
0.171509	
0.178528	
0.195007	
0.196228	
0.195313	
0.172729	
0.163269	
0.174255	
0.180969	
0.2005	
0.202942	
0.217896	
0.217896	
0.194092	
0.185547	
0.203552	
0.192261	
0.189209	
0.197144	
0.209045	
0.178528	
0.184326	
0.175171	
0.19989	
0.199585	
0.176697	
0.167847	
0.167542	
0.166626	
0.153809	
0.170898	
0.187378	
0.166626	
0.180664	
0.190735	
0.209045	
0.230713	
0.232544	
0.201416	
0.193787	
0.210266	
0.222473	
0.201721	
0.261536	
0.297852	
0.246582	
0.159302	
0.168152	
0.193787	
0.231934	
0.220337	
0.210266	
0.211487	
0.204468	
0.212097	
0.189514	
0.194092	
0.217896	
0.217285	
0.224609	
0.232849	
0.205078	
0.171814	
0.158691	
0.203247	
0.243225	
0.239258	
0.197754	
0.182495	
0.196228	
0.185242	
0.165405	
0.205078	
0.212097	
0.188293	
0.109863	
0.134888	
0.182495	
0.154419	
0.19104	
0.190125	
0.144043	
0.132446	
0.200806	
0.203247	
0.193176	
0.144958	
0.123901	
0.170288	
0.209045	
0.178528	
0.134277	
0.104065	
0.117493	
0.0979614	
0.124512	
0.188599	
0.170288	
0.136108	
0.14801	
0.184326	
0.157776	
0.148621	
0.140991	
0.127563	
0.136719	
0.161743	
0.148926	
0.195923	
0.187378	
0.151062	
0.115051	
0.115967	
0.179138	
0.185547	
0.139771	
0.198364	
0.169067	
0.180969	
0.187683	
0.185242	
0.137329	
0.137024	
0.147095	
0.151062	
0.16449	
0.198975	
0.155029	
0.166016	
0.163574	
0.1474	
0.148621	
0.161438	
0.150146	
0.155945	
0.232849	
0.282593	
0.188599	
0.126953	
0.110474	
0.137329	
0.205994	
0.19104	
0.16571	
0.167236	
0.158386	
0.149841	
0.161438	
0.203247	
0.220947	
0.223389	
0.219727	
0.234985	
0.230713	
0.287476	
0.310974	
0.303345	
0.325623	
0.335388	
0.333862	
0.35614	
0.386353	
0.427246	
0.463867	
0.456238	
0.45105	
0.455017	
0.456238	
0.508423	
0.500793	
0.506592	
0.483398	
0.436096	
0.426025	
0.421143	
0.399475	
0.383911	
0.364685	
0.39917	
0.385437	
0.358887	
0.287781	
0.280151	
0.256348	
0.211182	
0.181885	
0.158997	
0.166931	
0.119324	
-0.00274658	
-0.0521851	
-0.0515747	
-0.0109863	
-0.0335693	
-0.0195313	
-0.0872803	
-0.0906372	
-0.0457764	
-0.0131226	
0.0299072	
-0.0012207	
-0.0604248	
-0.088501	
-0.0216675	
-0.00213623	
0.00183105	
0.0210571	
0.0958252	
0.114136	
0.0888062	
0.0640869	
0.0979614	
0.13916	
0.183411	
0.141296	
0.117798	
0.144348	
0.145874	
0.168762	
0.183716	
0.1651	
0.149841	
0.151367	
0.150757	
0.105896	
0.117798	
0.146179	
0.138245	
0.118103	
0.134277	
0.192871	
0.218811	
0.150452	
0.18158	
0.197754	
0.184326	
0.124817	
0.131531	
0.183411	
0.16449	
0.14679	
0.13092	
0.112305	
0.145874	
0.177917	
0.183105	
0.210571	
0.210266	
0.170288	
0.154114	
0.140381	
0.141602	
0.144958	
0.171814	
0.157471	
0.186462	
0.157471	
0.152283	
0.196533	
0.227051	
0.201111	
0.172424	
0.159912	
0.181885	
0.169373	
0.230713	
0.183716	
0.182495	
0.136108	
0.127258	
0.169067	
0.218811	
0.203247	
0.174561	
0.153503	
0.14679	
0.14679	
0.175476	
0.150452	
0.166931	
0.185547	
0.21637	
0.205994	
0.205383	
0.173645	
0.15625	
0.150452	
0.166321	
0.202026	
0.178223	
0.189819	
0.125122	
0.178223	
0.158691	
0.151672	
0.158081	
0.190735	
0.209656	
0.160217	
0.187073	
0.234375	
0.207825	
0.183105	
0.169678	
0.158691	
0.148621	
0.140991	
0.174866	
0.201721	
0.232544	
0.189819	
0.176392	
0.151062	
0.150146	
0.194397	
0.214844	
0.199585	
0.211182	
0.241089	
0.213928	
0.203552	
0.1828	
0.160522	
0.164795	
0.195923	
0.209045	
0.216675	
0.216675	
0.197144	
0.161133	
0.191345	
0.215454	
0.188904	
0.190735	
0.199585	
0.211182	
0.253601	
0.243835	
0.21637	
0.200195	
0.158691	
0.141296	
0.149231	
0.14801	
0.17334	
0.201111	
0.229492	
0.258484	
0.253296	
0.22644	
0.172119	
0.19989	
0.202026	
0.209656	
0.233765	
0.232849	
0.201111	
0.180054	
0.205078	
0.223389	
0.205688	
0.205994	
0.244141	
0.333252	
0.281677	
0.195923	
0.218201	
0.191956	
0.153809	
0.272217	
0.295105	
0.252075	
0.188293	
0.202026	
0.20874	
0.219727	
0.2771	
0.259094	
0.223389	
0.216064	
0.220642	
0.223999	
0.249329	
0.233765	
0.231934	
0.254517	
0.264587	
0.253296	
0.228882	
0.228271	
0.224304	
0.231323	
0.249329	
0.230713	
0.224915	
0.339966	
0.30365	
0.249329	
0.213318	
0.237122	
0.245056	
0.245667	
0.256958	
0.258179	
0.229492	
0.219421	
0.232239	
0.195313	
0.180054	
0.21698	
0.240479	
0.230103	
0.233154	
0.264282	
0.237122	
0.227051	
0.240173	
0.24292	
0.235901	
0.227966	
0.247498	
0.238953	
0.227966	
0.192871	
0.178223	
0.170898	
0.18158	
0.184937	
0.187988	
0.182495	
0.169067	
0.183716	
0.196533	
0.189819	
0.191956	
0.187988	
0.174561	
0.176697	
0.1651	
0.189514	
0.24292	
0.231018	
0.169067	
0.153809	
0.180054	
0.220337	
0.215149	
0.153503	
0.125732	
0.135498	
0.190125	
0.205078	
0.16449	
0.124512	
0.119324	
0.117493	
0.113525	
0.154114	
0.160522	
0.176392	
0.173035	
0.1474	
0.101624	
0.0830078	
0.0796509	
0.106201	
0.144653	
0.0991821	
0.129395	
0.176392	
0.102844	
0.0494385	
0.0634766	
0.0891113	
0.14801	
0.067749	
0.10376	
0.101929	
0.136108	
0.127258	
0.0952148	
0.0585938	
0.10498	
0.105591	
0.109558	
0.0888062	
0.0454712	
0.0308228	
0.0805664	
0.136108	
0.129089	
0.110168	
0.0839233	
0.128479	
0.142822	
0.134888	
0.117798	
0.124207	
0.176697	
0.140991	
0.0799561	
0.0982666	
0.128174	
0.09552	
0.1297	
0.128479	
0.0924683	
0.0708008	
0.103149	
0.143738	
0.120544	
0.0866699	
0.114441	
0.12085	
0.0778198	
0.0952148	
0.11261	
0.117798	
0.101318	
0.105591	
0.125122	
0.103455	
0.0976563	
0.13092	
0.11322	
0.104065	
0.1297	
0.167847	
0.152893	
0.115051	
0.0952148	
0.111084	
0.144958	
0.185547	
0.180054	
0.138245	
0.0952148	
0.135193	
0.136414	
0.126953	
0.127258	
0.134583	
0.108032	
0.119934	
0.145264	
0.137634	
0.151062	
0.148621	
0.14801	
0.126953	
0.131836	
0.119324	
0.124512	
0.138245	
0.118408	
0.122986	
0.13092	
0.0762939	
0.0527954	
0.101929	
0.124207	
0.132751	
0.139771	
0.0997925	
0.110168	
0.126038	
0.146484	
0.133667	
0.119019	
0.0820923	
0.148926	
0.1651	
0.150757	
0.15686	
0.132141	
0.125732	
0.146484	
0.118713	
0.0665283	
0.11261	
0.177612	
0.170288	
0.149231	
0.132446	
0.124512	
0.143433	
0.131531	
0.102539	
0.13855	
0.185852	
0.217896	
0.171814	
0.168152	
0.182495	
0.180969	
0.133057	
0.115967	
0.09552	
0.0888062	
0.100708	
0.153809	
0.140686	
0.151062	
0.186768	
0.109558	
0.106812	
0.111084	
0.0933838	
0.12146	
0.178833	
0.155945	
0.152588	
0.151978	
0.195313	
0.145264	
0.111694	
0.137634	
0.194702	
0.170288	
0.145874	
0.130005	
0.143127	
0.137329	
0.137024	
0.124512	
0.105591	
0.0933838	
0.115356	
0.119324	
0.185547	
0.205688	
0.158081	
0.11322	
0.133057	
0.161133	
0.178528	
0.181885	
0.133972	
0.137329	
0.135193	
0.123901	
0.112915	
0.169373	
0.150452	
0.135803	
0.16449	
0.159912	
0.103149	
0.0720215	
0.10376	
0.132141	
0.15686	
0.138245	
0.107422	
0.119324	
0.137024	
0.1651	
0.146179	
0.109863	
0.0973511	
0.131836	
0.142517	
0.148315	
0.167542	
0.187378	
0.163574	
0.149536	
0.155029	
0.152283	
0.141602	
0.170898	
0.195007	
0.149536	
0.124207	
0.117798	
0.115662	
0.103455	
0.0796509	
0.143433	
0.158081	
0.149841	
0.130615	
0.14679	
0.123901	
0.129089	
0.150757	
0.150452	
0.132141	
0.140076	
0.169373	
0.128174	
0.141907	
0.168762	
0.120544	
0.126953	
0.160217	
0.140686	
0.134583	
0.126038	
0.12085	
0.129395	
0.133667	
0.140686	
0.195618	
0.146179	
0.0973511	
0.128784	
0.127563	
0.134888	
0.105591	
0.0949097	
0.105591	
0.0924683	
0.131836	
0.107727	
0.100403	
0.164795	
0.14679	
0.13092	
0.150757	
0.144653	
0.131836	
0.133667	
0.140991	
0.122375	
0.110168	
0.100098	
0.105286	
0.113525	
0.126648	
0.177917	
0.152283	
0.128479	
0.108337	
0.109863	
0.100403	
0.119934	
0.158386	
0.205078	
0.186462	
0.100098	
0.0860596	
0.126953	
0.159302	
0.198364	
0.157166	
0.133972	
0.0726318	
0.0860596	
0.0970459	
0.195618	
0.170288	
0.126343	
0.0817871	
0.108032	
0.126648	
0.11261	
0.109253	
0.126648	
0.123596	
0.125732	
0.136108	
0.152283	
0.111694	
0.0991821	
0.140076	
0.113831	
0.140076	
0.151672	
0.133972	
0.120239	
0.134277	
0.153809	
0.133057	
0.127258	
0.124817	
0.145264	
0.147095	
0.187378	
0.144653	
0.090332	
0.0741577	
0.126953	
0.143738	
0.118103	
0.135193	
0.115662	
0.119934	
0.103455	
0.0946045	
0.0836182	
0.131531	
0.155029	
0.186462	
0.143433	
0.102539	
0.108643	
0.196838	
0.156555	
0.107727	
0.128479	
0.119324	
0.107422	
0.134277	
0.169067	
0.160217	
0.169373	
0.158997	
0.130005	
0.141907	
0.150452	
0.142517	
0.111084	
0.119324	
0.144958	
0.119934	
0.100403	
0.115662	
0.149841	
0.108643	
0.116272	
0.14679	
0.158081	
0.166931	
0.138245	
0.0942993	
0.0799561	
0.136414	
0.138245	
0.151367	
0.152588	
0.176697	
0.149841	
0.143127	
0.195007	
0.164185	
0.137024	
0.134888	
0.131226	
0.131531	
0.0915527	
0.0772095	
0.1297	
0.15564	
0.137329	
0.18219	
0.151672	
0.129089	
0.158386	
0.1474	
0.125122	
0.116577	
0.124817	
0.156555	
0.135498	
0.13916	
0.127563	
0.128784	
0.128784	
0.112	
0.1297	
0.0933838	
0.13092	
0.150452	
0.132751	
0.134277	
0.137634	
0.128479	
0.197449	
0.210571	
0.193176	
0.141907	
0.166016	
0.160217	
0.149841	
0.148315	
0.167847	
0.179749	
0.1651	
0.141602	
0.143127	
0.158081	
0.155945	
0.177612	
0.177307	
0.146179	
0.111389	
0.129089	
0.180664	
0.211182	
0.171814	
0.139771	
0.115967	
0.143127	
0.152283	
0.143433	
0.132446	
0.161743	
0.132141	
0.119629	
0.131836	
0.144043	
0.150146	
0.143738	
0.119629	
0.11322	
0.116882	
0.134277	
0.145874	
0.159302	
0.14801	
0.173035	
0.201416	
0.140686	
0.118408	
0.0585938	
0.057373	
0.0521851	
0.0814819	
0.148315	
0.0674438	
0.0567627	
0.0708008	
0.154419	
0.150146	
0.114441	
0.0875854	
0.078125	
0.0942993	
0.090332	
0.108948	
0.0927734	
0.0827026	
0.0900269	
0.0912476	
0.135498	
0.18219	
0.126953	
0.150146	
0.143433	
0.101318	
0.105591	
0.151672	
0.155029	
0.0961304	
0.106201	
0.0744629	
0.0979614	
0.132751	
0.115967	
0.0897217	
0.088501	
0.0897217	
0.105286	
0.0775146	
0.105286	
0.129089	
0.0942993	
0.0991821	
0.0924683	
0.0817871	
0.1474	
0.211182	
0.173645	
0.0793457	
0.116272	
0.0906372	
0.0860596	
0.106506	
0.105896	
0.0976563	
0.129395	
0.106201	
0.123901	
0.127869	
0.145264	
0.130615	
0.142517	
0.16449	
0.152893	
0.167847	
0.182495	
0.187378	
0.16571	
0.202637	
0.246582	
0.234375	
0.224304	
0.319824	
0.415039	
0.37384	
0.319824	
0.310974	
0.340881	
0.382996	
0.412598	
0.441895	
0.472107	
0.488281	
0.48645	
0.503235	
0.501099	
0.477905	
0.435486	
0.395508	
0.387268	
0.395508	
0.378723	
0.37323	
0.372009	
0.342407	
0.339355	
0.310364	
0.266113	
0.261841	
0.197754	
0.169067	
0.222473	
0.160522	
0.010376	
-0.0619507	
-0.0753784	
-0.0994873	
-0.101318	
-0.0540161	
-0.0775146	
-0.114136	
-0.135498	
-0.119324	
-0.0643921	
-0.0524902	
-0.0991821	
-0.10376	
-0.067749	
-0.0442505	
-0.027771	
0.0192261	
-0.00274658	
-0.012207	
0.0167847	
0.0280762	
0.0717163	
0.0588989	
0.0509644	
0.0778198	
0.0701904	
0.0906372	
0.0778198	
0.0860596	
0.06073	
0.113525	
0.15686	
0.106812	
0.0912476	
0.0753784	
0.0506592	
0.0546265	
0.109863	
0.104065	
0.108032	
0.151062	
0.116272	
0.098877	
0.0897217	
0.0891113	
0.0997925	
0.100403	
0.088501	
0.0692749	
0.108032	
0.129089	
0.0970459	
0.108337	
0.101929	
0.111084	
0.118103	
0.130005	
0.120239	
0.136719	
0.138855	
0.115662	
0.119019	
0.116272	
0.121155	
0.141296	
0.184631	
0.124512	
0.108032	
0.127869	
0.118103	
0.147705	
0.151062	
0.117798	
0.098877	
0.0726318	
0.106506	
0.115356	
0.12146	
0.0973511	
0.124207	
0.189514	
0.139771	
0.119629	
0.0970459	
0.10376	
0.112915	
0.157166	
0.158081	
0.155029	
0.171814	
0.132446	
0.155029	
0.132446	
0.119934	
0.123596	
0.181274	
0.138855	
0.0665283	
0.0482178	
0.0830078	
0.134583	
0.140076	
0.114136	
0.12085	
0.189819	
0.146484	
0.100708	
0.0958252	
0.131531	
0.150757	
0.129089	
0.115662	
0.121155	
0.0979614	
0.109558	
0.13855	
0.10437	
0.0970459	
0.123901	
0.115662	
0.117188	
0.10437	
0.107422	
0.114441	
0.105286	
0.161133	
0.181885	
0.154724	
0.144958	
0.144958	
0.133362	
0.169678	
0.178833	
0.139771	
0.0857544	
0.0912476	
0.0970459	
0.117798	
0.135193	
0.146179	
0.110779	
0.180969	
0.169678	
0.169983	
0.115662	
0.135498	
0.175781	
0.207825	
0.198975	
0.146484	
0.129089	
0.141907	
0.142822	
0.112	
0.125732	
0.156555	
0.180664	
0.220337	
0.220947	
0.145874	
0.1474	
0.136719	
0.144958	
0.135193	
0.128174	
0.160217	
0.149841	
0.183105	
0.187988	
0.176392	
0.174255	
0.155945	
0.131226	
0.149231	
0.14801	
0.145874	
0.183411	
0.186462	
0.186768	
0.169373	
0.200806	
0.26947	
0.185242	
0.124512	
0.167847	
0.169678	
0.174866	
0.158691	
0.189209	
0.171814	
0.178223	
0.181885	
0.234375	
0.198669	
0.214844	
0.201416	
0.192261	
0.198975	
0.187378	
0.195618	
0.21698	
0.24353	
0.245972	
0.185852	
0.175781	
0.159912	
0.202026	
0.222778	
0.189514	
0.198364	
0.202332	
0.222778	
0.228577	
0.228271	
0.180664	
0.126648	
0.157776	
0.146484	
0.168152	
0.198975	
0.160217	
0.186462	
0.2005	
0.178528	
0.149841	
0.185547	
0.229492	
0.195007	
0.185547	
0.195618	
0.193176	
0.196228	
0.184631	
0.18158	
0.162964	
0.197144	
0.194092	
0.152893	
0.141602	
0.142822	
0.118103	
0.156555	
0.180054	
0.159607	
0.155029	
0.164795	
0.179138	
0.154724	
0.146484	
0.159912	
0.137024	
0.101013	
0.101624	
0.114441	
0.108032	
0.102539	
0.108337	
0.0942993	
0.0695801	
0.0982666	
0.118408	
0.132446	
0.0827026	
0.0820923	
0.083313	
0.0897217	
0.106201	
0.107727	
0.100098	
0.119324	
0.170288	
0.0839233	
0.0796509	
0.0802612	
0.0906372	
0.110779	
0.106506	
0.0875854	
0.0744629	
0.0750732	
0.0769043	
0.0665283	
0.0531006	
0.0509644	
0.0595093	
0.0686646	
0.104065	
0.072937	
0.0875854	
0.0628662	
0.0579834	
0.119019	
0.127563	
0.103149	
0.0674438	
0.0360107	
0.0244141	
0.0436401	
0.0656128	
0.132446	
0.0759888	
0.0558472	
0.0427246	
0.0195313	
0.00152588	
0.0747681	
0.134583	
0.0637817	
0.0238037	
0.0427246	
0.0537109	
0.0439453	
0.0631714	
0.085144	
0.133057	
0.109558	
0.0524902	
-0.0134277	
0.0390625	
0.0714111	
0.0506592	
0.0704956	
0.0863647	
0.0830078	
0.0674438	
0.0808716	
0.0759888	
0.0463867	
0.0527954	
0.0656128	
0.0952148	
0.10498	
0.139465	
0.104675	
0.0421143	
0.072937	
0.0637817	
0.0488281	
0.0213623	
0.0567627	
0.0772095	
0.106201	
0.105896	
0.0805664	
0.0747681	
0.0714111	
0.0811768	
0.0585938	
0.0756836	
0.0927734	
0.0747681	
0.020752	
0.0442505	
0.0878906	
0.133972	
0.115356	
0.0726318	
0.0576782	
0.0369263	
0.0299072	
0.0683594	
0.119019	
0.185852	
0.133057	
0.106812	
0.085144	
0.0799561	
0.0643921	
0.0830078	
0.104675	
0.0817871	
0.0524902	
0.0869751	
0.0985718	
0.100098	
0.106201	
0.104675	
0.0720215	
0.0598145	
0.0619507	
0.0930786	
0.103455	
0.0561523	
0.0662231	
0.126953	
0.146484	
0.132446	
0.100708	
0.0506592	
0.0802612	
0.0793457	
0.0738525	
0.0802612	
0.0872803	
0.101318	
0.100403	
0.0952148	
0.093689	
0.0854492	
0.0756836	
0.0848389	
0.101929	
0.105591	
0.124207	
0.10437	
0.0836182	
0.0817871	
0.110474	
0.106506	
0.0814819	
0.0830078	
0.11322	
0.159607	
0.132141	
0.0863647	
0.0891113	
0.0744629	
0.0921631	
0.103455	
0.0738525	
0.10498	
0.133667	
0.130615	
0.115051	
0.0753784	
0.0811768	
0.102844	
0.0946045	
0.0848389	
0.134277	
0.126038	
0.0558472	
0.119019	
0.133057	
0.0973511	
0.0839233	
0.0814819	
0.0720215	
0.0686646	
0.0680542	
0.0906372	
0.0854492	
0.102234	
0.112305	
0.116577	
0.140381	
0.121765	
0.0970459	
0.0958252	
0.0732422	
0.0811768	
0.0750732	
0.0646973	
0.0717163	
0.0802612	
0.0814819	
0.112915	
0.0973511	
0.0808716	
0.108032	
0.0732422	
0.0778198	
0.0668335	
0.13092	
0.149536	
0.120239	
0.11322	
0.0866699	
0.0872803	
0.0946045	
0.0878906	
0.0878906	
0.085144	
0.0991821	
0.102539	
0.10437	
0.106201	
0.0802612	
0.113525	
0.0924683	
0.0848389	
0.0778198	
0.15625	
0.133667	
0.12085	
0.100403	
0.119019	
0.0897217	
0.0350952	
0.0299072	
0.0769043	
0.116272	
0.0726318	
0.0827026	
0.162048	
0.108643	
0.0619507	
0.050354	
0.0939941	
0.0900269	
0.0674438	
0.0985718	
0.105591	
0.101318	
0.085144	
0.0753784	
0.0671387	
0.0759888	
0.0854492	
0.0570679	
0.0408936	
0.0793457	
0.0692749	
0.0973511	
0.145874	
0.132141	
0.098877	
0.101013	
0.0808716	
0.0888062	
0.0909424	
0.09552	
0.0640869	
0.0338745	
0.0866699	
0.0875854	
0.093689	
0.105286	
0.0939941	
0.0836182	
0.083313	
0.104065	
0.0970459	
0.0866699	
0.0888062	
0.0616455	
0.0585938	
0.0759888	
0.115356	
0.11261	
0.0814819	
0.0900269	
0.0830078	
0.110779	
0.0604248	
0.0717163	
0.135498	
0.142822	
0.0735474	
0.0775146	
0.0787354	
0.0686646	
0.0579834	
0.0811768	
0.0909424	
0.0701904	
0.0326538	
0.0708008	
0.0857544	
0.090332	
0.108337	
0.10376	
0.0946045	
0.107727	
0.0897217	
0.0848389	
0.0662231	
0.0869751	
0.109253	
0.0909424	
0.103149	
0.161133	
0.128174	
0.0292969	
-0.0143433	
0.0784302	
0.15686	
0.109558	
0.0427246	
0.118103	
0.170898	
0.120544	
0.0946045	
0.0909424	
0.0506592	
0.0482178	
0.0604248	
0.0698853	
0.0808716	
0.0671387	
0.0588989	
0.0634766	
0.093689	
0.105591	
0.0875854	
0.0692749	
0.112305	
0.12207	
0.0967407	
0.102844	
0.101013	
0.0946045	
0.0723267	
0.06073	
0.0854492	
0.0997925	
0.0619507	
0.0360107	
0.0515747	
0.0628662	
0.0473022	
0.0509644	
0.0750732	
0.0802612	
0.0964355	
0.105286	
0.0857544	
0.0805664	
0.0866699	
0.0668335	
0.0686646	
0.0823975	
0.085144	
0.0778198	
0.0759888	
0.0686646	
0.0857544	
0.102844	
0.0881958	
0.0863647	
0.0848389	
0.0997925	
0.105896	
0.0836182	
0.0891113	
0.078125	
0.0720215	
0.0488281	
0.106506	
0.139465	
0.0735474	
0.0619507	
0.0469971	
0.0808716	
0.111084	
0.135498	
0.0790405	
0.0460815	
0.0924683	
0.111389	
0.0952148	
0.0942993	
0.109253	
0.0857544	
0.0439453	
0.03479	
0.0308228	
0.0244141	
0.0610352	
0.0949097	
0.102234	
0.138245	
0.108948	
0.0982666	
0.0897217	
0.135803	
0.141296	
0.126648	
0.0750732	
0.0668335	
0.0799561	
0.0949097	
0.0930786	
0.0845337	
0.106812	
0.102539	
0.0970459	
0.0891113	
0.0665283	
0.0653076	
0.0582886	
0.0912476	
0.127258	
0.12085	
0.0585938	
0.083313	
0.107727	
0.12085	
0.0900269	
0.043335	
0.0543213	
0.0585938	
0.0610352	
0.067749	
0.0665283	
0.0830078	
0.0595093	
0.0979614	
0.0820923	
0.0872803	
0.0793457	
0.0717163	
0.0662231	
0.0949097	
0.0704956	
0.0976563	
0.0952148	
0.0778198	
0.0732422	
0.0567627	
0.0500488	
0.0769043	
0.0808716	
0.0698853	
0.0912476	
0.0848389	
0.0949097	
0.0811768	
0.0894165	
0.0631714	
0.0582886	
0.0872803	
0.0921631	
0.0680542	
0.0753784	
0.0592041	
0.0848389	
0.141296	
0.072937	
0.0708008	
0.0183105	
0.0485229	
0.0778198	
0.0799561	
0.126343	
0.167847	
0.110474	
0.105286	
0.130615	
0.0946045	
0.0222778	
-0.0192261	
0.0268555	
0.0234985	
0.0521851	
0.0698853	
0.0827026	
0.0857544	
0.127869	
0.116882	
0.0802612	
0.078125	
0.10376	
0.118103	
0.0927734	
0.0839233	
0.104065	
0.108032	
0.0930786	
0.0488281	
0.0366211	
0.0131226	
0.0146484	
0.0604248	
0.0488281	
0.142212	
0.191956	
0.130615	
0.0701904	
0.0671387	
0.0857544	
0.1297	
0.113831	
0.0976563	
0.0527954	
0.050354	
0.0628662	
0.0363159	
0.0390625	
0.071106	
0.0860596	
0.078125	
0.0653076	
0.0302124	
0.0619507	
0.0732422	
0.0527954	
0.0875854	
0.0863647	
0.0695801	
0.0592041	
0.0787354	
0.0909424	
0.0857544	
0.0784302	
0.0811768	
0.112915	
0.0640869	
0.101318	
0.0817871	
0.0592041	
0.0650024	
0.134888	
0.1651	
0.115051	
0.0564575	
0.0753784	
0.131531	
0.027771	
0.00610352	
0.0527954	
0.0570679	
0.0906372	
0.0933838	
0.0823975	
0.100098	
0.06073	
0.0531006	
0.0653076	
0.0628662	
0.128174	
0.143127	
0.0894165	
0.0192261	
0.03479	
0.0744629	
0.0698853	
0.0497437	
0.0775146	
0.0640869	
0.0708008	
0.0976563	
0.0796509	
0.0805664	
0.0830078	
0.0848389	
0.0805664	
0.0802612	
0.0811768	
0.0823975	
0.0927734	
0.10437	
0.123901	
0.150757	
0.100708	
0.0924683	
0.197754	
0.165405	
0.0811768	
0.0466919	
0.0643921	
0.0848389	
0.0897217	
0.0881958	
0.0671387	
0.0637817	
0.06073	
0.072937	
0.078125	
0.105591	
0.150146	
0.0997925	
0.0772095	
0.0418091	
0.0701904	
0.0979614	
0.0811768	
0.0897217	
0.129089	
0.130005	
0.0665283	
0.105286	
0.116882	
0.102234	
0.0912476	
0.105896	
0.1297	
0.0912476	
0.126953	
0.135803	
0.117493	
0.0891113	
0.0881958	
0.088501	
0.0878906	
0.0897217	
0.121155	
0.125732	
0.0827026	
0.0668335	
0.0991821	
0.133057	
0.169983	
0.0860596	
0.0387573	
0.0991821	
0.160217	
0.142517	
0.172729	
0.108337	
0.0814819	
0.045166	
0.0866699	
0.116882	
0.0698853	
0.062561	
0.0292969	
0.0302124	
0.0708008	
0.0537109	
0.0750732	
0.0863647	
0.0939941	
0.0634766	
0.00915527	
0.0164795	
0.100403	
0.117798	
0.0863647	
0.0759888	
0.0415039	
0.0424194	
0.0482178	
0.0979614	
0.067749	
0.0421143	
0.0650024	
0.0396729	
0.0665283	
0.0958252	
0.0500488	
0.0234985	
0.00915527	
0.0317383	
0.057373	
0.093689	
0.0845337	
0.0598145	
0.0259399	
0.0323486	
-0.00701904	
0.0445557	
0.100708	
0.0747681	
0.0726318	
0.0738525	
0.062561	
0.0668335	
0.111694	
0.101929	
0.0756836	
0.0704956	
0.0881958	
0.0531006	
0.0231934	
0.0280762	
0.0338745	
0.0439453	
0.0744629	
0.0588989	
0.0338745	
0.0814819	
0.0778198	
0.0747681	
0.0796509	
0.11261	
0.110779	
0.0552368	
0.0308228	
0.072937	
0.0769043	
0.0860596	
0.0805664	
0.0439453	
0.0784302	
0.108948	
0.0778198	
0.0714111	
0.0860596	
0.0854492	
0.101624	
0.110779	
0.090332	
0.0973511	
0.161133	
0.169678	
0.184937	
0.193176	
0.193481	
0.22522	
0.264893	
0.29541	
0.314636	
0.324402	
0.349121	
0.342407	
0.360718	
0.365601	
0.39917	
0.409546	
0.399475	
0.422668	
0.451965	
0.44281	
0.418396	
0.35675	
0.348816	
0.358276	
0.392151	
0.372925	
0.325623	
0.353394	
0.383606	
0.319214	
0.233154	
0.186157	
0.162659	
0.110474	
0.0866699	
0.0790405	
-0.00274658	
-0.0640869	
-0.120239	
-0.132751	
-0.162354	
-0.179443	
-0.149536	
-0.14801	
-0.183105	
-0.16571	
-0.144043	
-0.133362	
-0.119934	
-0.140381	
-0.117493	
-0.108032	
-0.112305	
-0.100098	
-0.0924683	
-0.062561	
-0.0387573	
0.00915527	
0.0201416	
-0.00915527	
-0.00274658	
-0.00610352	
0.0238037	
0.0494385	
0.0775146	
0.0799561	
0.0283813	
0.0741577	
0.0939941	
0.0799561	
0.0234985	
0.00671387	
0.0390625	
0.0778198	
0.0820923	
0.0521851	
0.0341797	
0.00366211	
0.0137329	
0.0112915	
0.00366211	
0.0802612	
0.088501	
0.0979614	
0.0897217	
0.0796509	
0.0595093	
0.0595093	
0.0332642	
0.0125122	
0.0747681	
0.102234	
0.0848389	
0.0393677	
0.0216675	
0.0637817	
0.0585938	
0.0463867	
0.0424194	
0.0735474	
-0.00457764	
-0.0180054	
0.0805664	
0.0909424	
0.0799561	
0.0686646	
0.113525	
0.14679	
0.0900269	
0.0668335	
0.0390625	
0.0393677	
0.0552368	
0.071106	
0.078125	
0.0622559	
0.0653076	
0.0427246	
0.0497437	
0.0537109	
0.0466919	
0.0622559	
0.0778198	
0.0695801	
0.055542	
0.0717163	
0.0848389	
0.0445557	
0.0411987	
0.115051	
0.10437	
0.0921631	
0.0973511	
0.106201	
0.111084	
0.0598145	
0.0445557	
0.0405884	
0.055542	
0.0671387	
0.0540161	
0.0524902	
0.0561523	
0.0747681	
0.0595093	
0.0634766	
0.0811768	
0.0875854	
0.0857544	
0.093689	
0.115662	
0.071106	
0.06073	
0.110779	
0.0900269	
0.0927734	
0.0650024	
0.0512695	
0.0650024	
0.115051	
0.0808716	
0.0708008	
0.0698853	
0.0622559	
0.0811768	
0.0601196	
0.0439453	
0.0692749	
0.0814819	
0.0650024	
0.0640869	
0.0949097	
0.0796509	
0.0796509	
0.0997925	
0.116272	
0.109863	
0.115967	
0.101318	
0.113525	
0.0906372	
0.0979614	
0.085144	
0.106201	
0.103455	
0.0723267	
0.0640869	
0.078125	
0.124817	
0.153809	
0.151978	
0.113525	
0.0961304	
0.1297	
0.138855	
0.0930786	
0.0616455	
0.138855	
0.0949097	
0.120239	
0.0735474	
0.0405884	
0.101013	
0.0970459	
0.0872803	
0.0961304	
0.152588	
0.140076	
0.0982666	
0.0827026	
0.125732	
0.110779	
0.0869751	
0.0869751	
0.098877	
0.150146	
0.155029	
0.128174	
0.133057	
0.136719	
0.0915527	
0.0976563	
0.11322	
0.135498	
0.133667	
0.107422	
0.0979614	
0.161438	
0.188904	
0.129395	
0.0875854	
0.0979614	
0.0695801	
0.101318	
0.138245	
0.179749	
0.155945	
0.159302	
0.151367	
0.139465	
0.151367	
0.148315	
0.115967	
0.10498	
0.121155	
0.13916	
0.152588	
0.158691	
0.142517	
0.155029	
0.168152	
0.13916	
0.12085	
0.107727	
0.108032	
0.161438	
0.171509	
0.110168	
0.10437	
0.160217	
0.145874	
0.119019	
0.136108	
0.150146	
0.138855	
0.11261	
0.133362	
0.137024	
0.124512	
0.101624	
0.0997925	
0.114136	
0.113525	
0.100708	
0.112305	
0.10498	
0.0720215	
0.0900269	
0.113525	
0.116272	
0.138855	
0.162659	
0.122986	
0.072937	
0.065918	
0.0622559	
0.105591	
0.100708	
0.105896	
0.0701904	
0.113831	
0.101318	
0.0653076	
0.0500488	
0.0747681	
0.0854492	
0.0762939	
0.0521851	
0.0558472	
0.0628662	
0.0656128	
0.0747681	
0.0466919	
0.0396729	
0.0674438	
0.0634766	
0.0344849	
0.0369263	
0.0662231	
0.0350952	
0.0222778	
0.0204468	
0.00946045	
0.0286865	
0.0222778	
0.0509644	
0.0799561	
0.0427246	
0.000305176	
0.0158691	
0.00244141	
0.0292969	
0.00244141	
-0.00823975	
0.017395	
0.0268555	
0.0244141	
0.0643921	
0.067749	
0.0396729	
0.0106812	
-0.00701904	
0.00579834	
0	
0.010376	
0.0323486	
0.00915527	
-0.0292969	
-0.0302124	
0.00152588	
-0.00823975	
-0.00274658	
0.000610352	
0.0778198	
0.0552368	
0.0231934	
-0.00610352	
-0.00427246	
0.0164795	
0.0372314	
0.0338745	
0.0210571	
0.0424194	
0.0131226	
-0.0228882	
0.00396729	
0.0717163	
0.12146	
0.0497437	
-0.0320435	
-0.0540161	
-0.0357056	
0.0521851	
0.0430298	
0.0088501	
-0.032959	
-0.0262451	
0.00305176	
0.0827026	
0.0473022	
0.0244141	
-0.00946045	
-0.0354004	
-0.0100708	
-0.00274658	
0.00854492	
0.0521851	
0.0491333	
0.0421143	
0.0234985	
0.0567627	
0.0549316	
0.0485229	
0.032959	
-0.00823975	
-0.0198364	
0.00427246	
0.0442505	
0.0149536	
-0.020752	
0.0219727	
0.0247192	
0.0244141	
0.0421143	
0.0680542	
0.0390625	
0.0360107	
0.0521851	
0.0787354	
0.0680542	
0.0418091	
0.0149536	
0.0473022	
0.0656128	
0.0628662	
0.0231934	
-0.0387573	
-0.0610352	
-0.00946045	
0.0775146	
0.0756836	
0.0418091	
0.0479126	
0.0634766	
0.0579834	
0.0588989	
0.0576782	
0.0653076	
0.0546265	
0.0479126	
0.0787354	
0.119934	
0.0735474	
-0.000610352	
-0.00640869	
0.00366211	
-0.0170898	
0.0387573	
0.0704956	
0.0592041	
0.0582886	
0.0354004	
0.0296021	
0.0256348	
0.0112915	
0.0445557	
0.0320435	
0.0384521	
0.0454712	
0.0427246	
0.0216675	
0.0366211	
0.032959	
-0.0128174	
0.0115967	
0.0408936	
0.0570679	
0.0717163	
0.0485229	
0.0256348	
0.0500488	
0.0674438	
0.072937	
0.0714111	
0.0811768	
0.0744629	
0.0909424	
0.0363159	
0.00823975	
0.043335	
0.0567627	
0.0738525	
0.078125	
0.06073	
0.0546265	
0.0735474	
0.111084	
0.062561	
0.0286865	
0.010376	
0.0390625	
0.039978	
0.0396729	
0.0619507	
0.0540161	
0.0335693	
0.0292969	
0.0488281	
0.0448608	
0.0286865	
0.0378418	
0.101318	
0.0787354	
0.0436401	
0.0134277	
0.0134277	
0.0439453	
0.0515747	
0.0500488	
0.0585938	
0.062561	
0.0350952	
0.0839233	
0.0723267	
0.0405884	
0.03479	
0.0570679	
0.0262451	
0.0204468	
0.0717163	
0.110168	
0.0704956	
0.027771	
-0.0283813	
-0.0213623	
0.0726318	
0.065918	
0.0622559	
0.0839233	
0.0341797	
0.0180054	
0.0753784	
0.0796509	
0.0296021	
0.0332642	
0.0436401	
0.0396729	
0.0527954	
0.0854492	
0.0759888	
0.0311279	
0.0161743	
0.012207	
0.0216675	
0.0109863	
0.0189209	
0.00610352	
0.0631714	
0.0796509	
0.0717163	
0.0717163	
0.045166	
0.00823975	
0.020752	
0.0192261	
0.0418091	
0.0683594	
0.0906372	
0.100403	
0.0650024	
0.0109863	
0.0198364	
0.0354004	
0.0250244	
0.0668335	
0.0680542	
0.0436401	
0.0360107	
0.0405884	
0.0643921	
0.020752	
0.0253296	
0.0506592	
0.0476074	
0.0479126	
0.0384521	
0.0567627	
0.0585938	
0.0482178	
0.0192261	
0.0256348	
0.0653076	
0.110779	
0.0939941	
0.0759888	
0.0256348	
-0.00274658	
-0.00366211	
0.0244141	
0.0430298	
0.03479	
0.0314331	
0.0106812	
0.0585938	
0.0592041	
0.0158691	
0.0326538	
0.0424194	
0.0415039	
0.0338745	
0.039978	
0.0485229	
0.0558472	
0.0198364	
0.0247192	
0.0234985	
0.015564	
0.0317383	
0.0308228	
0.00854492	
0.0271606	
0.0799561	
0.0820923	
0.0167847	
0.0131226	
0.0732422	
0.0717163	
0.0387573	
0.0119019	
0.0350952	
0.0622559	
0.0149536	
0.0125122	
0.0463867	
0.0579834	
0.0671387	
0.0131226	
0.0112915	
0.0241089	
0.0469971	
0.0439453	
0.0396729	
0.0189209	
0.0259399	
0.0378418	
0.0408936	
0.0311279	
0.0216675	
-0.00762939	
0.0299072	
0.050354	
0.0271606	
0.0360107	
0.0280762	
0.03479	
0.0463867	
0.0415039	
0.0640869	
0.0909424	
0.055542	
0.0323486	
0.0439453	
0.0363159	
0.055542	
0.0720215	
0.0616455	
0.0311279	
0.0100708	
0.0695801	
0.0872803	
0.0942993	
0.0878906	
0.0109863	
-0.0253296	
0.0106812	
0.00549316	
0.0195313	
0.0463867	
0.0170898	
0.0314331	
0.0183105	
0.0308228	
0.0222778	
0.0479126	
0.027771	
0.0170898	
0.0338745	
0.0488281	
0.0454712	
0.0778198	
0.103455	
0.0268555	
-0.0161743	
-0.00335693	
-0.0332642	
-0.00640869	
-0.00335693	
0.090332	
0.0488281	
0.0198364	
0.0494385	
0.0421143	
0.0250244	
0.0335693	
0.0479126	
0.0509644	
0.0393677	
0.0717163	
0.0354004	
-0.00396729	
0.0134277	
0.0271606	
0.0119019	
-0.0012207	
0.00640869	
0.0958252	
0.0946045	
0.045166	
0.0372314	
0.0540161	
0.0222778	
0.0164795	
0.0149536	
0.0564575	
0.0396729	
0.0442505	
0.0363159	
0.0341797	
0.0170898	
0.017395	
0.00549316	
0.0674438	
0.10376	
0.121155	
0.106201	
0.0250244	
-0.0115967	
0.0170898	
0.0601196	
0.0360107	
0.0411987	
0.0579834	
0.0497437	
0.0219727	
0.0204468	
0.00701904	
0.0140381	
0.0198364	
0.0234985	
0.0115967	
-0.00946045	
0.0546265	
0.0485229	
0.0299072	
0.0286865	
0.0131226	
0.017395	
0.0106812	
0.0436401	
0.039978	
0.0698853	
0.0735474	
0.0335693	
0.0274658	
0.0259399	
0.0317383	
0.0259399	
0.0286865	
0.03479	
0.0448608	
0.0283813	
0.0442505	
0.0479126	
0.0354004	
0.00732422	
-0.00213623	
0.0302124	
0.00518799	
0.00213623	
0.0238037	
0.0378418	
0.0631714	
0.0650024	
0.0643921	
0.0497437	
0.00549316	
0.0494385	
0.0640869	
0.0808716	
0.045166	
0.0204468	
-0.0128174	
-0.00244141	
0.0463867	
0.0744629	
0.039978	
0.0354004	
0.0491333	
0.0320435	
0.039978	
0.0454712	
0.000610352	
-0.00366211	
-0.0180054	
0.00915527	
0.0741577	
0.0653076	
0.0848389	
0.0488281	
0.0271606	
0.0473022	
0.0509644	
0.0109863	
0.0628662	
0.0924683	
0.0366211	
0.000610352	
-0.00244141	
-0.0164795	
0.027771	
0.0793457	
0.0592041	
0.0283813	
0.027771	
0.0616455	
0.0402832	
0.0186157	
-0.00183105	
-0.0531006	
-0.00213623	
-0.0201416	
-0.00335693	
0.032959	
0.0701904	
0.0881958	
0.113831	
0.0680542	
0.0311279	
-0.0100708	
-0.00610352	
0.00854492	
0.00793457	
0.0375366	
0.102234	
0.0863647	
0.0769043	
0.0558472	
0.0582886	
0.03479	
0.0350952	
-0.00915527	
-0.0161743	
0.0363159	
0.0582886	
0.0549316	
0.0915527	
0.0213623	
0.0256348	
0.0439453	
0.0701904	
0.022583	
0.0158691	
0.0158691	
-0.00457764	
0.0241089	
0.0634766	
0.027771	
-0.000610352	
0.0335693	
0.0247192	
0.0231934	
0.0167847	
0.00152588	
0.027771	
0.027771	
0.0366211	
0.0360107	
0.0323486	
0.0473022	
0.0262451	
0.00213623	
0.0518799	
0.0448608	
0.0244141	
0.0210571	
0.0473022	
0.0836182	
0.0543213	
0.0177002	
0.0180054	
0.116577	
0.0784302	
0.0320435	
0.0946045	
0.0891113	
0.022583	
-0.00457764	
0.0436401	
0.0515747	
0.0280762	
-0.00732422	
0.00457764	
0.0247192	
0.0482178	
0.027771	
0.050354	
0.0656128	
0.0366211	
0.0500488	
0.0259399	
0.00915527	
0.0350952	
0.0527954	
0.0387573	
0.0604248	
0.0219727	
0.0256348	
0.0363159	
0.0259399	
0.0717163	
0.0650024	
0.0369263	
0.0344849	
0.0259399	
0.0363159	
0.0466919	
0.0469971	
0.0830078	
0.0845337	
0.0811768	
0.0759888	
0.045166	
0.0695801	
0.055542	
0.0256348	
0.0540161	
0.098877	
0.0405884	
0.0180054	
0.0912476	
0.0976563	
0.0610352	
0.0631714	
0.0299072	
0.0332642	
0.085144	
0.098877	
0.0488281	
0.015564	
0.0241089	
0.0289917	
0.022583	
0.0494385	
0.0619507	
0.0827026	
0.0915527	
0.0976563	
0.0906372	
0.0827026	
0.0497437	
0.00640869	
0.0274658	
0.0161743	
0.0302124	
-0.00366211	
0.0579834	
0.0900269	
0.0927734	
0.0646973	
0.020752	
0.0262451	
-0.0012207	
0.0164795	
0.0357056	
0.0238037	
0.0344849	
-0.0012207	
-0.00671387	
0.00518799	
0.00335693	
-0.00671387	
-0.00762939	
-0.0457764	
-0.00396729	
-0.00854492	
-0.0128174	
-0.0140381	
0.0164795	
0.012207	
0.0302124	
0.0393677	
0.0158691	
0.027771	
0.0299072	
0.0262451	
-0.00640869	
-0.0088501	
-0.00701904	
0.00854492	
0.0466919	
0.0442505	
0.0332642	
0.00366211	
0.00457764	
-0.0119019	
-0.017395	
0.0473022	
0.093689	
-0.00152588	
-0.0195313	
0.000610352	
0.0131226	
0.0106812	
0.00854492	
0.0332642	
0.027771	
0.0238037	
-0.0134277	
-0.0195313	
0.0125122	
0.0296021	
0.0125122	
0.00396729	
0.0195313	
0.0708008	
0.0216675	
0.00823975	
-0.0204468	
-0.0137329	
0.00427246	
0.0250244	
0.00823975	
0.00549316	
0.0234985	
0.00946045	
0.0311279	
0.0726318	
0.0473022	
0.0326538	
0.088501	
0.0827026	
0.0717163	
0.0210571	
0.0390625	
0.10498	
0.1297	
0.131531	
0.151367	
0.1828	
0.197144	
0.210571	
0.209045	
0.232544	
0.288696	
0.263977	
0.288696	
0.299377	
0.310669	
0.335083	
0.370178	
0.384827	
0.452576	
0.427551	
0.412598	
0.400085	
0.364075	
0.331421	
0.315247	
0.281067	
0.271301	
0.249634	
0.269775	
0.300598	
0.276794	
0.314026	
0.235291	
0.156555	
0.0778198	
0.0308228	
0.0430298	
0.00671387	
-0.0262451	
-0.039978	
-0.150757	
-0.213623	
-0.228882	
-0.236511	
-0.236206	
-0.245361	
-0.287476	
-0.26123	
-0.152893	
-0.159302	
-0.206299	
-0.190125	
-0.112305	
-0.0924683	
-0.140686	
-0.101929	
-0.0686646	
-0.0469971	
-0.0192261	
-0.06073	
-0.10498	
-0.0772095	
-0.0488281	
-0.0170898	
-0.0140381	
-0.00701904	
-0.0106812	
-0.0119019	
0.00457764	
0.00915527	
-0.00305176	
0.00274658	
0.0161743	
-0.00518799	
-0.0115967	
-0.00427246	
-0.00854492	
-0.0128174	
0.00152588	
0.00183105	
0.0125122	
0.0344849	
0.0405884	
0.0125122	
0.00335693	
0.0247192	
0.0012207	
-0.00183105	
0.0180054	
0.0299072	
0.0204468	
0.0567627	
0.0445557	
0.00366211	
-0.0244141	
0.00457764	
-0.010376	
-0.0140381	
-0.00213623	
0.027771	
0.0265503	
0.0656128	
0.0811768	
0.0570679	
0.0592041	
0.0274658	
0.012207	
0.0299072	
0.0262451	
0.017395	
0.0170898	
-0.0198364	
0.0088501	
-0.0131226	
0.00946045	
0.0476074	
0.0360107	
0.0714111	
0.0549316	
0.0341797	
0.0500488	
0.039978	
0.0137329	
-0.0186157	
-0.0430298	
-0.00579834	
0.0299072	
0.0283813	
0.0634766	
0.0875854	
0.045166	
0.0506592	
0.0466919	
0.00488281	
0.0149536	
0.0552368	
0.0775146	
0.0546265	
0.00823975	
0.0109863	
0.0323486	
0.022583	
0.015564	
0.0296021	
0.0482178	
0.0692749	
0.0369263	
0.0546265	
0.0448608	
0.00640869	
-0.012207	
0.0296021	
0.0537109	
0.0311279	
0.0201416	
0.022583	
0.0396729	
0.0344849	
0.0390625	
0.0344849	
0.0299072	
0.100403	
0.0802612	
0.0125122	
0.00976563	
0.106812	
0.141907	
0.0762939	
0.0335693	
0.0106812	
0.0552368	
0.0576782	
0.043335	
0.0424194	
0.055542	
0.055542	
0.0186157	
0.0213623	
0.00701904	
0.0180054	
0.0570679	
0.0747681	
0.0704956	
0.0939941	
0.0793457	
0.0292969	
0.0387573	
0.0726318	
0.045166	
0.0265503	
0.0784302	
0.106201	
0.110168	
0.0531006	
-0.022583	
-0.0158691	
0.0558472	
0.113525	
0.0964355	
0.0427246	
0.0274658	
0.020752	
0.0411987	
0.0454712	
0.0634766	
0.0915527	
0.0811768	
0.0439453	
0.0500488	
0.0558472	
0.0527954	
0.0857544	
0.0875854	
0.0668335	
0.0622559	
0.0631714	
0.0799561	
0.115356	
0.120239	
0.106812	
0.0784302	
0.107422	
0.0799561	
0.0796509	
0.0790405	
0.0930786	
0.0820923	
0.0787354	
0.0921631	
0.0900269	
0.101929	
0.0909424	
0.0946045	
0.09552	
0.0799561	
0.120239	
0.124817	
0.0393677	
0.0253296	
0.0643921	
0.0906372	
0.128174	
0.133972	
0.114441	
0.0827026	
0.0662231	
0.110168	
0.1651	
0.148621	
0.154724	
0.13855	
0.110474	
0.0860596	
0.100098	
0.0817871	
0.0628662	
0.0738525	
0.133667	
0.13092	
0.093689	
0.0784302	
0.0894165	
0.0869751	
0.0845337	
0.0912476	
0.104675	
0.103149	
0.155945	
0.125122	
0.107727	
0.147705	
0.143433	
0.125732	
0.0460815	
0.0265503	
0.065918	
0.0723267	
0.00640869	
0.0698853	
0.109253	
0.103455	
0.0564575	
0.0137329	
0.0299072	
0.0665283	
0.0668335	
0.0723267	
0.0283813	
0.0125122	
0.0219727	
0.0701904	
0.0463867	
0.0149536	
0.0195313	
0.0253296	
0.0418091	
0.0231934	
0.0576782	
0.0695801	
0.0485229	
0.0280762	
0.0161743	
0.0125122	
-0.0222778	
0.0106812	
0.0115967	
-0.00274658	
0.017395	
0.00244141	
-0.00213623	
-0.0280762	
-0.0314331	
0.00854492	
-0.0106812	
0.00549316	
0.0125122	
-0.00823975	
0.0372314	
0.0112915	
-0.0494385	
-0.039978	
-0.0234985	
0.00732422	
0.00274658	
0.0140381	
0.022583	
-0.0292969	
-0.0628662	
-0.032959	
-0.0143433	
-0.00732422	
-0.00915527	
-0.0256348	
-0.0234985	
-0.0509644	
0.000915527	
-0.0140381	
-0.0610352	
-0.0415039	
-0.0436401	
-0.071106	
-0.0784302	
-0.100403	
-0.0497437	
-0.0143433	
-0.0360107	
-0.0326538	
-0.0613403	
-0.0527954	
0.00793457	
-0.0180054	
-0.0204468	
0.00579834	
0.043335	
0.00518799	
-0.0152588	
0.00457764	
-0.0701904	
-0.0799561	
-0.067749	
-0.00701904	
0.000305176	
-0.0228882	
0.00152588	
0.00610352	
-0.0167847	
-0.0543213	
-0.0177002	
0.0222778	
-0.00976563	
-0.00854492	
-0.0219727	
-0.0531006	
-0.0491333	
-0.0164795	
0.00701904	
0.010376	
-0.0100708	
-0.0186157	
-0.0271606	
-0.0357056	
-0.043335	
-0.0509644	
-0.0305176	
-0.0128174	
0.012207	
-0.0457764	
-0.0405884	
0.00396729	
-0.00274658	
0.00579834	
0.00579834	
-0.0128174	
-0.0128174	
0.00427246	
0.00793457	
0.0363159	
0.039978	
-0.0390625	
-0.0195313	
-0.00213623	
-0.00823975	
0.00793457	
0.000915527	
-0.00549316	
-0.0158691	
-0.0350952	
-0.0152588	
0.0198364	
0.0134277	
-0.0128174	
-0.0335693	
-0.0314331	
-0.00823975	
0.00823975	
0	
-0.032959	
-0.0326538	
-0.012207	
0.0695801	
0.050354	
-0.00640869	
-0.0372314	
-0.0375366	
-0.0299072	
0	
0.00732422	
0.0106812	
0.0241089	
-0.0195313	
-0.0424194	
0.00213623	
-0.00762939	
0.00457764	
0.0930786	
0.0747681	
0.0259399	
-0.012207	
-0.0265503	
0.0537109	
0.0323486	
-0.0152588	
-0.0756836	
-0.0421143	
0.017395	
-0.0149536	
-0.0152588	
-0.0296021	
-0.0158691	
-0.0012207	
0.0100708	
0.0115967	
0.0137329	
-0.00976563	
0.000915527	
-0.0140381	
0.0213623	
0.0100708	
-0.00518799	
0.012207	
-0.0186157	
-0.0131226	
0.00640869	
0.00396729	
-0.0128174	
0.0344849	
0.0796509	
0.0515747	
0.00457764	
0.0344849	
0.0088501	
-0.0109863	
0.00579834	
0.00823975	
-0.00671387	
-0.00427246	
0.0201416	
0.0238037	
0.0323486	
0.0115967	
-0.0180054	
0.0137329	
0.0683594	
0.0494385	
0.0500488	
0.072937	
0.0384521	
-0.0567627	
-0.0186157	
0.0405884	
0.0683594	
0.0192261	
-0.0204468	
0.000915527	
-0.0289917	
-0.0204468	
0.00396729	
0.00396729	
0.0100708	
0.00579834	
0.0125122	
0.00213623	
0.03479	
0.050354	
0.00732422	
0.00152588	
-0.0100708	
-0.00701904	
0.0686646	
0.0317383	
-0.0289917	
-0.055542	
-0.062561	
0.00823975	
0.0942993	
0.0198364	
-0.0189209	
0.000610352	
0.0161743	
-0.0115967	
0.00671387	
0.020752	
0.0112915	
0.0109863	
0.00305176	
0.00305176	
-0.00671387	
0.00274658	
-0.0012207	
-0.00427246	
-0.00427246	
0.00213623	
0.00701904	
-0.0088501	
0.00793457	
0.0521851	
0.0320435	
0.00793457	
-0.0128174	
0.00976563	
0.017395	
0.00610352	
0.00518799	
-0.0375366	
-0.0323486	
-0.00427246	
0.0314331	
0.0100708	
-0.0320435	
-0.00640869	
-0.00152588	
0.0363159	
0.00732422	
0.00671387	
0.0204468	
-0.00610352	
0.00976563	
-0.0164795	
-0.0204468	
-0.00488281	
0.0256348	
0.0622559	
0.0201416	
-0.0164795	
-0.00518799	
-0.0115967	
-0.0216675	
0.0137329	
0.0143433	
0.00640869	
-0.00427246	
-0.00762939	
-0.022583	
0.0100708	
0.0198364	
0.0354004	
-0.0146484	
-0.0421143	
-0.00640869	
0.0238037	
0.0164795	
0.0390625	
0.057373	
-0.0393677	
-0.0378418	
0.0671387	
0.017395	
0.00793457	
0.00244141	
-0.000610352	
0.00488281	
-0.0183105	
-0.0250244	
-0.0137329	
-0.0198364	
-0.0128174	
-0.020752	
-0.0152588	
0.00671387	
0.0231934	
-0.000915527	
0.00488281	
0.0012207	
-0.00732422	
-0.0170898	
0.0128174	
0.00915527	
-0.0106812	
0.020752	
-0.00701904	
-0.0350952	
-0.0268555	
-0.0271606	
0.00640869	
0.00701904	
-0.00305176	
-0.0216675	
-0.0323486	
-0.0320435	
0.0582886	
0.0448608	
0.0564575	
-0.0112915	
-0.0299072	
-0.0143433	
0.0100708	
-0.0289917	
-0.0234985	
0.0302124	
0.0460815	
0.0695801	
0.0106812	
0.06073	
0.0775146	
0.0430298	
-0.0521851	
-0.0558472	
-0.0354004	
-0.0241089	
-0.0283813	
-0.0268555	
-0.0250244	
-0.00274658	
-0.00640869	
-0.00732422	
-0.0112915	
-0.0012207	
0.0192261	
-0.00579834	
-0.0222778	
-0.0195313	
-0.0109863	
-0.0167847	
-0.0146484	
0.00946045	
0.0204468	
0.0448608	
0.0274658	
-0.0320435	
-0.0628662	
-0.00946045	
0.0189209	
0.0540161	
0.00640869	
-0.00671387	
-0.0265503	
-0.038147	
-0.0109863	
0.0164795	
0.0106812	
-0.0219727	
-0.0152588	
0.00976563	
0.00823975	
-0.00366211	
0.0125122	
0.027771	
-0.0253296	
-0.0421143	
-0.0317383	
-0.0222778	
0.012207	
0.0253296	
0.00793457	
-0.0088501	
-0.00152588	
0.0213623	
0.0231934	
-0.00976563	
-0.0219727	
-0.0238037	
0.0219727	
0.106201	
0.065918	
0.0186157	
-0.0704956	
-0.0823975	
-0.027771	
0.0149536	
0.00793457	
0.00457764	
0.0268555	
0.0390625	
0.0357056	
-0.0131226	
-0.0427246	
-0.010376	
-0.00823975	
-0.027771	
-0.00976563	
0.0146484	
-0.0115967	
-0.00854492	
-0.00854492	
-0.0222778	
-0.0149536	
0.00640869	
0.0234985	
0	
0.00518799	
0.0140381	
-0.020752	
-0.0488281	
-0.0436401	
-0.0238037	
0.0109863	
0.0186157	
0.0140381	
0.00274658	
-0.0149536	
-0.0253296	
-0.0109863	
0.0253296	
0.0473022	
0.0146484	
0.0219727	
0.0231934	
-0.0109863	
-0.00305176	
0.00946045	
-0.017395	
-0.0146484	
0.0311279	
0.0088501	
0.0201416	
-0.00701904	
-0.0125122	
-0.0177002	
-0.0222778	
-0.0241089	
-0.020752	
0.00793457	
0.0115967	
0.0183105	
-0.00183105	
-0.0140381	
-0.0180054	
-0.0149536	
-0.0234985	
-0.010376	
0.0253296	
0.0119019	
-0.0247192	
0.00183105	
-0.00183105	
-0.00579834	
0.00854492	
0.0128174	
-0.00396729	
0.0183105	
0.0357056	
-0.0213623	
-0.0119019	
-0.0195313	
-0.000610352	
0.0088501	
-0.00823975	
-0.00183105	
-0.0262451	
-0.0189209	
-0.0161743	
0.0350952	
0.0442505	
0.0515747	
0.0427246	
0.0402832	
0.0350952	
0.0112915	
-0.0189209	
-0.0180054	
-0.0357056	
-0.0180054	
0.0088501	
-0.010376	
0.0561523	
0.0317383	
-0.0241089	
-0.00244141	
0.0119019	
0.0125122	
0.0109863	
-0.0430298	
-0.00274658	
-0.0216675	
-0.0357056	
-0.0137329	
-0.000610352	
0.0268555	
-0.0143433	
0.00549316	
-0.0262451	
-0.0387573	
0.0012207	
0.0250244	
0.0125122	
-0.0152588	
-0.0189209	
-0.0204468	
-0.0579834	
0.0183105	
0.0259399	
0.00823975	
-0.0311279	
-0.0323486	
-0.022583	
-0.00854492	
0.0012207	
0.0167847	
0.0158691	
0.00152588	
0.0106812	
0.00305176	
-0.00732422	
0.0146484	
0.0424194	
0.00640869	
-0.0326538	
-0.0189209	
0.0146484	
-0.0292969	
-0.0387573	
-0.00518799	
0.0796509	
0.06073	
0.0338745	
0.0137329	
-0.0326538	
-0.0140381	
0.0616455	
0.0265503	
0.00946045	
0.00457764	
0.00823975	
0.020752	
0.0201416	
0.0332642	
0.00366211	
0.0183105	
0.00183105	
-0.0195313	
-0.0360107	
-0.0161743	
0.0131226	
0.0213623	
0.0454712	
0.0695801	
0.0326538	
0.0137329	
0.0241089	
0.0610352	
0.022583	
0.0128174	
0.0146484	
0.0222778	
-0.00946045	
-0.0158691	
0.0259399	
0.0558472	
0.0274658	
-0.0195313	
-0.0161743	
-0.0189209	
0.0537109	
0.0186157	
0.00152588	
-0.00823975	
0.00274658	
0.0247192	
0.0402832	
-0.00762939	
0.0210571	
0.0869751	
0.0692749	
0.0808716	
0.0772095	
0.0704956	
0.0482178	
0.0265503	
0.0488281	
0.0402832	
0.0283813	
0.0448608	
0.0686646	
0.0421143	
0.00640869	
-0.00488281	
-0.00427246	
0.000610352	
-0.0140381	
0.000305176	
0.0106812	
-0.0180054	
-0.022583	
-0.0338745	
-0.00946045	
0.00610352	
-0.020752	
-0.0222778	
-0.038147	
-0.0454712	
-0.0198364	
0.0332642	
-0.0268555	
-0.0820923	
-0.0622559	
0.0115967	
-0.0167847	
-0.0619507	
-0.022583	
-0.0219727	
-0.0241089	
0.017395	
-0.022583	
-0.0158691	
-0.0213623	
0.00701904	
0.0161743	
-0.0201416	
-0.0479126	
-0.0430298	
-0.0222778	
0.0244141	
0.0134277	
-0.0653076	
-0.043335	
-0.027771	
-0.00244141	
-0.0289917	
-0.0375366	
-0.0238037	
-0.0201416	
-0.0170898	
-0.0274658	
-0.0119019	
-0.0192261	
0.0119019	
-0.0106812	
-0.0363159	
-0.0302124	
-0.0518799	
-0.0473022	
-0.0662231	
0.00305176	
0.00579834	
0.0241089	
0.00823975	
-0.0341797	
-0.0628662	
0.0167847	
0.0289917	
-0.0360107	
-0.0311279	
-0.00671387	
-0.0250244	
-0.0305176	
-0.0204468	
0.000915527	
0.0146484	
0.00549316	
0.0158691	
0.0302124	
0.0839233	
0.0750732	
0.0531006	
0.0909424	
0.0735474	
0.114441	
0.168762	
0.153809	
0.132141	
0.134277	
0.19043	
0.195923	
0.204468	
0.234985	
0.256958	
0.281677	
0.285339	
0.336914	
0.326233	
0.322266	
0.350952	
0.363464	
0.333557	
0.33844	
0.276794	
0.221558	
0.195313	
0.193176	
0.213013	
0.222778	
0.152893	
0.183411	
0.191956	
0.199585	
0.151062	
0.0769043	
0.0543213	
0.0585938	
0.0256348	
-0.0457764	
-0.106812	
-0.142517	
-0.174561	
-0.201721	
-0.221558	
-0.290527	
-0.296021	
-0.249329	
-0.225525	
-0.242004	
-0.175476	
-0.152893	
-0.161743	
-0.195923	
-0.17395	
-0.175171	
-0.170593	
-0.151062	
-0.134583	
-0.112915	
-0.0970459	
-0.0790405	
-0.109863	
-0.0448608	
-0.0900269	
-0.115662	
-0.0378418	
-0.0262451	
-0.0265503	
-0.0201416	
0.000915527	
0.0222778	
0.010376	
-0.00427246	
-0.00183105	
-0.00183105	
-0.0115967	
-0.022583	
-0.0445557	
-0.0518799	
-0.0363159	
-0.0344849	
-0.0415039	
-0.0567627	
-0.0360107	
0.0119019	
-0.0088501	
-0.0320435	
-0.0262451	
0.0164795	
0.0274658	
0.0411987	
0.0250244	
0.00305176	
-0.0137329	
-0.00427246	
-0.022583	
-0.0283813	
-0.000610352	
-0.0195313	
-0.0497437	
-0.0170898	
-0.00305176	
0.0115967	
-0.0238037	
-0.00457764	
0.0289917	
0.00488281	
-0.0354004	
-0.0650024	
-0.020752	
-0.0210571	
-0.0167847	
0.0088501	
-0.0189209	
0.012207	
-0.0012207	
0.0100708	
0	
-0.0146484	
-0.0119019	
0.0494385	
0.00518799	
-0.0152588	
-0.0143433	
0.00396729	
0.0286865	
0.0570679	
0.0100708	
-0.0274658	
0.00244141	
0.0326538	
0.012207	
0.0350952	
-0.00915527	
-0.00762939	
0.03479	
0.0622559	
0.0143433	
0.00579834	
-0.00549316	
-0.0149536	
-0.0280762	
-0.0222778	
-0.0140381	
-0.0341797	
-0.022583	
0.0491333	
0.0192261	
-0.00579834	
-0.017395	
-0.0445557	
-0.0228882	
0.0134277	
0.0946045	
0.0448608	
0.0167847	
0.00274658	
0.00244141	
0.0180054	
-0.0192261	
-0.0152588	
-0.0241089	
0.0119019	
0.0234985	
-0.020752	
0.00183105	
0.0222778	
0.0177002	
-0.0143433	
0.0128174	
0.020752	
0.0253296	
0.0439453	
0.012207	
-0.0088501	
-0.0198364	
0.00274658	
-0.00396729	
0.0192261	
0.0186157	
0.0146484	
0.000610352	
0.057373	
0.0738525	
0.0302124	
-0.00488281	
0.0167847	
0.0311279	
0.0549316	
0.0527954	
0.0390625	
0.0588989	
0.0820923	
0.0238037	
0.0338745	
0.057373	
0.0109863	
0.0268555	
0.0473022	
0.0881958	
0.0665283	
0.00976563	
0.00701904	
0.0360107	
0.0219727	
0.0415039	
0.0238037	
0.0286865	
0.0311279	
0.0439453	
0.0836182	
0.045166	
0.0384521	
0.0552368	
0.0338745	
0.0570679	
0.0769043	
0.0579834	
0.0134277	
0.0494385	
0.0778198	
0.0717163	
0.0656128	
0.0335693	
0.0222778	
0.0161743	
0.0701904	
0.0665283	
0.0598145	
0.0183105	
0.0891113	
0.0924683	
0.105286	
0.0616455	
0.0497437	
0.055542	
0.0460815	
0.102234	
0.119324	
0.0637817	
0.0653076	
0.0915527	
0.0491333	
0.0219727	
0.0219727	
0.0509644	
0.0796509	
0.129395	
0.0976563	
0.065918	
0.0384521	
0.0799561	
0.0805664	
0.0976563	
0.0848389	
0.0402832	
0.0628662	
0.0650024	
0.0552368	
0.022583	
0.000610352	
0.0177002	
0.0836182	
0.078125	
0.101624	
0.127258	
0.0857544	
0.0753784	
0.0616455	
0.078125	
0.0506592	
0.0454712	
0.0680542	
0.0616455	
0.0836182	
0.088501	
0.0793457	
0.0836182	
0.0857544	
0.0521851	
0.0234985	
0.00610352	
0.032959	
0.0601196	
0.00579834	
-0.0109863	
0.0143433	
-0.0109863	
0.0509644	
0.0531006	
0.0146484	
0.0283813	
0.0357056	
0.0265503	
-0.00457764	
-0.0128174	
0.0128174	
-0.0534058	
-0.0280762	
-0.032959	
-0.0375366	
0.0149536	
-0.0143433	
0.00549316	
0.00366211	
-0.0509644	
-0.0427246	
-0.0299072	
-0.0411987	
-0.0244141	
-0.0311279	
-0.0390625	
-0.0149536	
0.0119019	
0.0115967	
-0.0234985	
-0.0671387	
-0.0494385	
-0.0469971	
-0.0323486	
-0.0366211	
-0.0256348	
-0.0622559	
-0.0686646	
-0.072937	
-0.0930786	
-0.071106	
-0.072937	
-0.0811768	
-0.0302124	
-0.0338745	
-0.0619507	
-0.0613403	
-0.043335	
-0.0759888	
-0.0979614	
-0.0857544	
-0.0592041	
-0.0558472	
-0.0534058	
-0.0131226	
-0.0439453	
-0.0689697	
-0.0311279	
-0.043335	
-0.0637817	
-0.118408	
-0.0848389	
-0.0482178	
-0.0332642	
-0.0259399	
-0.0366211	
-0.0186157	
0.0109863	
-0.039978	
-0.0552368	
-0.0299072	
-0.027771	
-0.00854492	
-0.0671387	
-0.0820923	
-0.0689697	
-0.105286	
-0.0704956	
-0.0372314	
0.0161743	
-0.0570679	
-0.0796509	
-0.0689697	
-0.0189209	
-0.0137329	
-0.00854492	
-0.0421143	
-0.0332642	
-0.0463867	
-0.0619507	
-0.0695801	
-0.0772095	
-0.0476074	
-0.0469971	
-0.0500488	
-0.0454712	
-0.0631714	
-0.0531006	
-0.0549316	
-0.0500488	
-0.0488281	
-0.0259399	
-0.0418091	
-0.0598145	
-0.0512695	
-0.043335	
-0.0793457	
-0.0717163	
-0.03479	
-0.065918	
-0.0790405	
-0.0402832	
-0.0326538	
-0.0372314	
-0.0326538	
-0.039978	
0.0366211	
-0.0213623	
-0.0631714	
-0.0595093	
-0.0106812	
-0.0253296	
-0.0418091	
-0.0436401	
-0.0430298	
-0.0436401	
-0.0500488	
-0.0286865	
-0.0286865	
-0.012207	
-0.0302124	
-0.0262451	
-0.0219727	
-0.0500488	
-0.0698853	
-0.0549316	
-0.0335693	
-0.00579834	
0.00274658	
-0.0601196	
-0.0488281	
-0.0115967	
-0.0296021	
-0.0439453	
0.022583	
0.0131226	
0.000915527	
-0.0198364	
-0.00610352	
-0.00457764	
-0.0302124	
-0.0332642	
-0.0411987	
-0.0836182	
-0.0732422	
-0.0390625	
-0.0387573	
-0.0274658	
-0.0228882	
0.0167847	
-0.00183105	
-0.0323486	
-0.0500488	
-0.0445557	
0.00396729	
0.00610352	
-0.0204468	
-0.00183105	
0.00244141	
-0.0134277	
-0.0253296	
-0.0210571	
0.00213623	
0.00579834	
-0.045166	
-0.0732422	
-0.0262451	
0.00152588	
-0.0241089	
-0.0375366	
-0.0479126	
-0.0317383	
-0.0228882	
-0.0238037	
-0.00305176	
0.0302124	
0.0125122	
-0.0360107	
-0.0305176	
0.00396729	
-0.0326538	
-0.043335	
-0.0137329	
-0.022583	
-0.00762939	
-0.00610352	
-0.00915527	
-0.0189209	
-0.0180054	
-0.0125122	
-0.00457764	
-0.0216675	
-0.0149536	
-0.0161743	
-0.0088501	
0.017395	
0.0125122	
-0.0439453	
-0.0588989	
0.00640869	
0.0393677	
0.0418091	
0.010376	
-0.0189209	
0.0146484	
0.00366211	
-0.0247192	
-0.0186157	
-0.0204468	
-0.0427246	
-0.0689697	
-0.0314331	
-0.0344849	
0.00854492	
-0.00671387	
-0.039978	
-0.0112915	
-0.0341797	
-0.0387573	
-0.0454712	
-0.0628662	
-0.0216675	
-0.00610352	
-0.0204468	
-0.0253296	
-0.000915527	
0.0177002	
-0.00213623	
-0.0335693	
-0.0509644	
-0.0375366	
-0.0189209	
0.0100708	
0.0186157	
0.0494385	
-0.00854492	
-0.0112915	
-0.0415039	
-0.0152588	
-0.0283813	
-0.0283813	
-0.0195313	
-0.0521851	
-0.0656128	
-0.0427246	
-0.0256348	
-0.0656128	
-0.0585938	
-0.0180054	
-0.0228882	
-0.00366211	
0.00396729	
-0.0119019	
-0.0402832	
-0.0323486	
0.00579834	
0.00732422	
-0.00305176	
-0.0335693	
-0.03479	
-0.0259399	
-0.0350952	
-0.0393677	
-0.0506592	
-0.000610352	
-0.00854492	
-0.00946045	
-0.00732422	
-0.0296021	
-0.0302124	
0.00244141	
0.00915527	
0.0088501	
0.00640869	
-0.0170898	
-0.0149536	
-0.00854492	
-0.0146484	
-0.0228882	
-0.0119019	
-0.0280762	
-0.038147	
-0.020752	
-0.0665283	
-0.0320435	
0.00823975	
-0.0393677	
-0.0088501	
0.0317383	
0.0283813	
-0.010376	
-0.00488281	
0.0375366	
0.0375366	
-0.0619507	
-0.0991821	
-0.0463867	
-0.0109863	
-0.0283813	
-0.0640869	
-0.0357056	
-0.0280762	
-0.0357056	
-0.00762939	
0.00335693	
-0.0411987	
-0.0411987	
-0.0299072	
-0.0549316	
-0.0463867	
-0.0518799	
-0.0283813	
0.00427246	
0.0357056	
0.0271606	
0.00579834	
0.00793457	
-0.0222778	
-0.0436401	
-0.0543213	
-0.0344849	
-0.00610352	
-0.00610352	
-0.0100708	
0.000610352	
-0.0991821	
-0.0979614	
-0.0778198	
-0.0323486	
0.0198364	
-0.0189209	
-0.0280762	
0.00640869	
-0.00213623	
-0.00183105	
-0.012207	
0.0210571	
0.00305176	
0.0131226	
0.00274658	
-0.0372314	
-0.0494385	
-0.0259399	
-0.0143433	
0.000610352	
-0.00457764	
-0.045166	
-0.0473022	
-0.0518799	
-0.0567627	
-0.0402832	
-0.00823975	
-0.00457764	
-0.0192261	
-0.0775146	
-0.0640869	
-0.0183105	
-0.0241089	
-0.00549316	
0.00244141	
0.0119019	
0.00671387	
0.0146484	
-0.0100708	
-0.00915527	
-0.0238037	
-0.03479	
-0.0241089	
-0.039978	
-0.00213623	
0.0219727	
0.0164795	
-0.00152588	
-0.0579834	
-0.0344849	
-0.0228882	
-0.0302124	
-0.0241089	
0.0164795	
0.00518799	
-0.0698853	
-0.045166	
-0.0268555	
-0.0320435	
-0.00640869	
0.0344849	
-0.038147	
-0.0463867	
-0.0390625	
-0.0210571	
-0.027771	
-0.0436401	
-0.0183105	
-0.0088501	
-0.0326538	
-0.0299072	
0.000610352	
0.00915527	
0.0088501	
-0.0164795	
-0.0100708	
-0.0204468	
0.0296021	
-0.0119019	
-0.0323486	
-0.0411987	
-0.0280762	
0.00488281	
-0.0131226	
0.00549316	
-0.0152588	
-0.0280762	
-0.067749	
-0.0234985	
0.00427246	
0.00335693	
-0.0576782	
-0.0552368	
-0.038147	
-0.03479	
-0.0253296	
-0.0119019	
0.00610352	
0.0408936	
-0.0134277	
-0.0317383	
-0.071106	
-0.0415039	
-0.012207	
0.015564	
0.00701904	
-0.0961304	
-0.0540161	
-0.0177002	
-0.0540161	
0.00823975	
0.103455	
0.110474	
-0.0387573	
-0.102539	
-0.0491333	
-0.00305176	
-0.0213623	
-0.00579834	
-0.0186157	
-0.0585938	
-0.0436401	
-0.020752	
0.0442505	
0.045166	
-0.00488281	
0.0262451	
0.0112915	
0.027771	
-0.0137329	
-0.0167847	
-0.0549316	
-0.03479	
0.000915527	
-0.00640869	
-0.00457764	
-0.0167847	
-0.00610352	
-0.000915527	
-0.0170898	
0.0131226	
-0.0268555	
-0.0494385	
-0.0164795	
-0.0268555	
0.0189209	
0.00183105	
-0.0234985	
-0.0488281	
-0.0531006	
-0.0180054	
0.00366211	
0	
-0.0012207	
0.0143433	
0.0119019	
0.0241089	
0.00335693	
-0.0253296	
-0.0140381	
-0.000915527	
-0.00274658	
-0.0216675	
-0.0112915	
0.0231934	
0.0485229	
0.0469971	
0.0402832	
0.0332642	
-0.0140381	
-0.00213623	
0.0265503	
0.0250244	
0.0134277	
0.00488281	
-0.0265503	
-0.0152588	
0.0201416	
0.0234985	
0.0335693	
0.0289917	
0.027771	
0.0411987	
0.0354004	
0.0198364	
0.00640869	
-0.0640869	
-0.057373	
-0.00732422	
0.0253296	
-0.0436401	
-0.101318	
-0.0836182	
-0.0119019	
0.0506592	
-0.0112915	
-0.0375366	
-0.0363159	
-0.0402832	
-0.0378418	
-0.00244141	
0.0326538	
0.00610352	
-0.0491333	
-0.0952148	
-0.0723267	
-0.0366211	
-0.0161743	
-0.055542	
-0.0515747	
-0.0354004	
-0.0311279	
-0.0299072	
0.0253296	
0.0100708	
-0.038147	
-0.050354	
-0.0234985	
-0.0250244	
-0.0354004	
-0.0418091	
-0.0613403	
-0.0686646	
-0.0576782	
-0.0186157	
-0.0338745	
-0.0457764	
-0.0668335	
-0.0582886	
-0.0628662	
-0.0463867	
-0.0357056	
-0.0375366	
-0.0299072	
-0.0650024	
-0.0613403	
-0.0366211	
0.0216675	
-0.0134277	
-0.0509644	
-0.0482178	
-0.057373	
-0.0518799	
-0.0473022	
-0.0457764	
-0.0457764	
0.012207	
-0.00305176	
-0.038147	
-0.0152588	
-0.0241089	
-0.0259399	
-0.0213623	
-0.0549316	
-0.0357056	
-0.0125122	
-0.0222778	
-0.0219727	
-0.017395	
0.0256348	
0.020752	
0.017395	
-0.0149536	
-0.0253296	
-0.0180054	
0.012207	
0.0720215	
0.0875854	
0.0518799	
0.0558472	
0.106201	
0.125427	
0.131836	
0.197144	
0.205383	
0.193176	
0.180664	
0.207825	
0.237122	
0.244141	
0.232239	
0.246887	
0.24231	
0.238953	
0.307007	
0.379333	
0.317383	
0.256348	
0.18219	
0.174561	
0.165405	
0.208435	
0.182495	
0.17395	
0.202332	
0.246277	
0.227966	
0.155029	
0.0924683	
0.0430298	
-0.0442505	
-0.0500488	
-0.0689697	
-0.0982666	
-0.141907	
-0.172424	
-0.220337	
-0.232849	
-0.247803	
-0.270691	
-0.263977	
-0.240173	
-0.205994	
-0.24292	
-0.239868	
-0.197754	
-0.212402	
-0.213013	
-0.226746	
-0.212097	
-0.193787	
-0.183105	
-0.146484	
-0.137939	
-0.166626	
-0.100403	
-0.0241089	
-0.0531006	
-0.0350952	
-0.0164795	
-0.0494385	
-0.0708008	
-0.0408936	
-0.0137329	
-0.0268555	
-0.0192261	
0.0192261	
0.00274658	
-0.0201416	
-0.00274658	
0.0192261	
0	
-0.00854492	
-0.0317383	
-0.0436401	
-0.00518799	
0.0424194	
-0.027771	
-0.0604248	
-0.0588989	
-0.0524902	
-0.0177002	
0.0198364	
-0.0201416	
-0.0579834	
-0.0485229	
-0.0402832	
-0.0180054	
-0.022583	
-0.0134277	
0.00305176	
0.00152588	
-0.0344849	
-0.0366211	
-0.0164795	
-0.00488281	
-0.0112915	
-0.012207	
-0.0140381	
-0.0296021	
-0.0164795	
-0.00976563	
-0.0109863	
0.00915527	
0.0192261	
-0.0247192	
-0.0326538	
-0.0375366	
-0.0302124	
-0.00244141	
-0.0332642	
-0.085144	
-0.0405884	
0.0302124	
-0.0213623	
-0.0280762	
-0.0143433	
-0.0387573	
0.0424194	
0.067749	
0.0537109	
-0.0317383	
-0.0244141	
-0.0302124	
0.0088501	
0.020752	
-0.00244141	
-0.00549316	
0.00946045	
0.0213623	
-0.000610352	
-0.0222778	
0.00274658	
-0.0219727	
-0.0253296	
-0.0100708	
-0.012207	
0.00335693	
-0.00518799	
0.0201416	
0.0119019	
0.0170898	
0.0170898	
0.0161743	
0.0177002	
0.0158691	
0.0234985	
0.00488281	
-0.0180054	
-0.00976563	
-0.00854492	
-0.00823975	
-0.00549316	
-0.0128174	
0.00366211	
0.0125122	
0.0158691	
0.0396729	
0.0302124	
-0.027771	
-0.00701904	
0.0280762	
0.0283813	
-0.0137329	
-0.0582886	
-0.0186157	
-0.0387573	
-0.0167847	
0.00732422	
-0.0140381	
0.015564	
0.0195313	
-0.0115967	
0.015564	
0.0170898	
-0.00946045	
-0.0152588	
0.00976563	
0.0256348	
0.0537109	
0.0680542	
0.0100708	
-0.00305176	
0.0231934	
0.0866699	
0.032959	
0.00701904	
0.0317383	
0.0311279	
0.0195313	
0.0311279	
0.022583	
0.0271606	
-0.00915527	
-0.0134277	
-0.0170898	
0.0247192	
0.0427246	
0.000915527	
-0.00274658	
0.0454712	
0.0619507	
0.0964355	
0.0769043	
0.0479126	
0.000305176	
-0.00427246	
0.0463867	
0.065918	
0.0967407	
0.0741577	
0.0637817	
0.111694	
0.131531	
0.0445557	
-0.00396729	
0.0201416	
0.0561523	
0.0601196	
0.0759888	
0.072937	
0.131836	
0.143127	
0.0653076	
-0.0250244	
0.00610352	
0.0253296	
0.0411987	
0.0747681	
0.0982666	
0.0482178	
0.0396729	
0.0302124	
0.0570679	
0.0704956	
0.0784302	
0.0708008	
0.0567627	
0.0497437	
0.0695801	
0.0692749	
0.0759888	
0.09552	
0.0741577	
0.100708	
0.0997925	
0.0463867	
0.0717163	
0.0817871	
0.0836182	
0.0799561	
0.118713	
0.0708008	
0.0289917	
0.039978	
0.0741577	
0.108337	
0.0637817	
0.015564	
0.0289917	
0.109863	
0.0540161	
0.015564	
0.0186157	
0.0585938	
0.0408936	
0.0265503	
0.0274658	
0.0332642	
0.0476074	
0.0643921	
0.0201416	
0.0125122	
0.020752	
0.0180054	
0.0238037	
0.027771	
0.0311279	
0.0350952	
0.0674438	
0.0497437	
0.017395	
0.0189209	
-0.0112915	
-0.0201416	
0.00701904	
0.000610352	
-0.00335693	
-0.00762939	
0.0393677	
0.0549316	
0.00183105	
-0.0216675	
0.00823975	
-0.0216675	
-0.0292969	
-0.00183105	
-0.0128174	
-0.0341797	
-0.0570679	
-0.0518799	
-0.0619507	
-0.0680542	
-0.0778198	
-0.0512695	
-0.0704956	
-0.0424194	
-0.0268555	
-0.0177002	
-0.043335	
-0.022583	
-0.0335693	
-0.0540161	
-0.0320435	
-0.0317383	
-0.0363159	
-0.0869751	
-0.13855	
-0.128784	
0.0695801	
0.0460815	
-0.0192261	
-0.125122	
-0.0918579	
-0.0765991	
-0.106812	
-0.0933838	
-0.072937	
-0.0506592	
-0.0613403	
-0.0350952	
-0.0448608	
-0.0738525	
-0.131531	
-0.122681	
-0.0360107	
-0.0628662	
-0.0561523	
-0.0787354	
-0.105286	
-0.133057	
-0.0958252	
-0.0909424	
-0.101929	
-0.0827026	
-0.0411987	
-0.0247192	
-0.0732422	
-0.0994873	
-0.0790405	
-0.022583	
-0.0238037	
-0.0732422	
-0.0540161	
-0.0552368	
-0.0476074	
-0.0161743	
-0.0262451	
-0.0372314	
-0.0497437	
-0.0552368	
-0.0323486	
-0.0390625	
-0.0515747	
-0.0506592	
-0.0534058	
-0.0912476	
-0.106812	
-0.0830078	
-0.0543213	
-0.0558472	
-0.0793457	
-0.0463867	
-0.0494385	
-0.0604248	
-0.0354004	
-0.0482178	
-0.0628662	
-0.0488281	
-0.0289917	
-0.0131226	
-0.0415039	
-0.062561	
-0.0964355	
-0.0842285	
-0.0747681	
-0.071106	
-0.0891113	
-0.0335693	
-0.0283813	
-0.0488281	
-0.0552368	
-0.0643921	
-0.0579834	
-0.0680542	
-0.088501	
-0.0946045	
-0.0900269	
-0.0634766	
0.0088501	
0.0213623	
-0.0192261	
-0.00762939	
-0.06073	
-0.0750732	
-0.00427246	
-0.0421143	
-0.0247192	
-0.0363159	
0	
-0.0875854	
-0.0976563	
-0.062561	
0.00671387	
-0.0149536	
-0.0805664	
-0.067749	
-0.0283813	
-0.027771	
-0.0421143	
-0.067749	
-0.0787354	
-0.0286865	
-0.010376	
0.00366211	
0.00610352	
0.012207	
0.00152588	
-0.0238037	
-0.0317383	
-0.0942993	
-0.0933838	
-0.0610352	
-0.0289917	
-0.0378418	
-0.00305176	
-0.00427246	
-0.0454712	
-0.072937	
-0.039978	
-0.0396729	
-0.0640869	
-0.0747681	
-0.0744629	
-0.0488281	
-0.0619507	
-0.0106812	
-0.00457764	
-0.0012207	
0.00366211	
-0.0134277	
-0.0244141	
-0.00213623	
0.0302124	
-0.0262451	
-0.0250244	
-0.00549316	
0.0271606	
-0.0183105	
-0.0140381	
-0.00518799	
0.00427246	
-0.00457764	
0.000305176	
-0.0283813	
-0.043335	
-0.0524902	
-0.0390625	
-0.017395	
0.0314331	
-0.00457764	
-0.0512695	
-0.0698853	
-0.0561523	
-0.0289917	
0.00183105	
-0.0158691	
-0.0302124	
-0.0311279	
-0.0418091	
-0.0311279	
-0.0219727	
-0.0262451	
-0.0241089	
-0.0253296	
-0.0570679	
-0.0534058	
-0.0680542	
-0.0610352	
-0.0305176	
0.00335693	
0.00915527	
-0.0161743	
-0.0146484	
0.00732422	
-0.0158691	
-0.0463867	
-0.0445557	
-0.0350952	
-0.0112915	
-0.0161743	
-0.03479	
-0.0378418	
-0.0494385	
-0.050354	
-0.0247192	
-0.0283813	
-0.0613403	
-0.0497437	
0.000305176	
0.0119019	
-0.0317383	
0.0198364	
0.0112915	
0.000610352	
0.0192261	
-0.0125122	
-0.0213623	
-0.0299072	
-0.0701904	
-0.0860596	
-0.0183105	
0.0204468	
-0.0350952	
-0.0463867	
-0.0289917	
0.0164795	
-0.0436401	
-0.0140381	
-0.0268555	
-0.0396729	
-0.0424194	
-0.0430298	
-0.0454712	
-0.0558472	
-0.0473022	
-0.0457764	
-0.0427246	
-0.0253296	
-0.0265503	
-0.0408936	
-0.0650024	
-0.0598145	
-0.0683594	
0.00579834	
0.0320435	
-0.00854492	
-0.020752	
-0.0088501	
-0.0439453	
-0.0619507	
-0.0643921	
-0.0439453	
-0.03479	
0.00396729	
0.0296021	
0.0106812	
-0.00701904	
-0.0369263	
-0.0158691	
-0.0332642	
-0.0457764	
0.0341797	
-0.000915527	
-0.0741577	
-0.0680542	
-0.043335	
-0.0576782	
-0.0497437	
-0.0350952	
-0.0637817	
-0.0280762	
-0.0323486	
-0.0268555	
-0.0363159	
-0.0366211	
0	
-0.0161743	
-0.0375366	
-0.0311279	
-0.0360107	
-0.0317383	
-0.0244141	
-0.0210571	
-0.0180054	
-0.0323486	
-0.0448608	
-0.0701904	
-0.0216675	
0.00732422	
-0.0485229	
-0.0195313	
0.012207	
-0.0302124	
-0.0543213	
-0.0177002	
-0.0473022	
-0.0427246	
0.0137329	
0.00946045	
-0.00244141	
-0.0280762	
-0.00274658	
-0.0012207	
-0.0671387	
-0.0720215	
-0.0552368	
-0.0463867	
-0.00640869	
0.00701904	
-0.0534058	
-0.111389	
-0.078125	
-0.0375366	
0.00549316	
-0.0137329	
-0.055542	
-0.0271606	
-0.039978	
-0.0286865	
-0.0219727	
-0.0387573	
-0.0570679	
-0.0518799	
-0.0601196	
-0.010376	
-0.00152588	
-0.0463867	
-0.0268555	
0.00732422	
-0.039978	
-0.0448608	
-0.032959	
-0.0250244	
-0.0265503	
-0.0375366	
-0.0454712	
-0.0570679	
-0.0262451	
-0.017395	
0.00946045	
0.0161743	
-0.0576782	
-0.083313	
0.000610352	
-0.00579834	
-0.0387573	
-0.0430298	
-0.0531006	
-0.0515747	
-0.0311279	
-0.00274658	
-0.03479	
-0.0857544	
-0.113831	
-0.101624	
-0.0674438	
-0.0689697	
0.0012207	
0.0302124	
-0.00915527	
-0.0109863	
-0.0286865	
-0.0360107	
-0.0256348	
-0.0100708	
-0.027771	
-0.0323486	
-0.0259399	
-0.0314331	
-0.0265503	
-0.0332642	
0.0088501	
-0.0216675	
0.0186157	
0.0247192	
-0.0164795	
-0.0140381	
-0.00457764	
-0.00640869	
-0.0326538	
-0.0289917	
-0.0375366	
-0.0531006	
-0.0213623	
-0.0100708	
-0.0292969	
-0.0637817	
-0.0582886	
-0.0488281	
-0.0595093	
0.00915527	
0.0537109	
0.00671387	
-0.0604248	
-0.0338745	
-0.0253296	
-0.0408936	
-0.0247192	
-0.0387573	
-0.0183105	
-0.0286865	
-0.038147	
-0.0991821	
-0.0830078	
-0.0195313	
0.0088501	
-0.0689697	
-0.0759888	
-0.0152588	
-0.0180054	
-0.0219727	
0.00610352	
-0.000915527	
-0.0402832	
-0.0524902	
-0.0772095	
-0.045166	
-0.0299072	
0.0445557	
0.012207	
-0.0466919	
-0.00946045	
-0.0265503	
-0.0485229	
-0.0411987	
-0.0170898	
-0.0305176	
-0.0408936	
-0.0540161	
-0.0244141	
0.00640869	
0.0238037	
-0.017395	
-0.0518799	
-0.0286865	
-0.0119019	
-0.017395	
-0.0622559	
-0.043335	
-0.0180054	
-0.0515747	
-0.0717163	
-0.0198364	
0.00366211	
0.0274658	
-0.0109863	
-0.0146484	
-0.0747681	
-0.0585938	
-0.0476074	
-0.0500488	
-0.0488281	
-0.0552368	
-0.0427246	
-0.0653076	
-0.0372314	
-0.00274658	
-0.00183105	
0.00854492	
0.0170898	
0.0247192	
0.0012207	
-0.0216675	
-0.00396729	
-0.0192261	
-0.0320435	
-0.0369263	
-0.0396729	
-0.0128174	
0.0372314	
0.0143433	
0.00183105	
-0.0189209	
-0.0369263	
-0.0262451	
0.0149536	
0.0311279	
-0.0457764	
-0.0650024	
-0.00549316	
-0.00396729	
-0.0442505	
-0.0445557	
-0.0442505	
-0.0125122	
-0.00915527	
-0.0283813	
-0.0128174	
-0.0198364	
-0.00946045	
-0.00671387	
-0.0360107	
-0.0494385	
-0.00366211	
-0.00244141	
-0.00946045	
-0.020752	
0.0234985	
0.0546265	
-0.00244141	
-0.00427246	
-0.0115967	
-0.0332642	
-0.0424194	
-0.0253296	
0.017395	
0.0234985	
0.0323486	
-0.00427246	
0.0259399	
0.043335	
0.0201416	
0.0125122	
-0.0167847	
0.0134277	
0.0717163	
0.0897217	
0.0106812	
-0.0671387	
-0.065918	
0.0012207	
0.00671387	
-0.0198364	
-0.0222778	
-0.0372314	
-0.039978	
-0.0271606	
-0.0375366	
-0.0183105	
0.00274658	
-0.0326538	
-0.0653076	
-0.0564575	
-0.0576782	
-0.0610352	
-0.0457764	
-0.0552368	
-0.0631714	
-0.0488281	
-0.0418091	
-0.0469971	
-0.0186157	
-0.0708008	
-0.102234	
-0.0549316	
-0.0292969	
-0.0473022	
-0.0796509	
-0.0686646	
-0.050354	
-0.0195313	
-0.00457764	
-0.0164795	
-0.0137329	
-0.0280762	
-0.0549316	
-0.0424194	
-0.0296021	
-0.0622559	
-0.0579834	
-0.0405884	
-0.0143433	
-0.0411987	
-0.0732422	
-0.100098	
-0.065918	
-0.0292969	
-0.0402832	
-0.0411987	
-0.0320435	
-0.0708008	
-0.0875854	
-0.0427246	
-0.0390625	
-0.0424194	
-0.00244141	
-0.0100708	
-0.0357056	
-0.0527954	
-0.0628662	
-0.0512695	
-0.0375366	
-0.0497437	
-0.0210571	
-0.0320435	
-0.0369263	
-0.050354	
-0.0262451	
-0.0088501	
-0.00854492	
0.0115967	
-0.0204468	
-0.0512695	
-0.0320435	
-0.0198364	
0.00274658	
0.0195313	
-0.0134277	
-0.0271606	
-0.00366211	
-0.00274658	
0.020752	
0.057373	
0.0485229	
0.101318	
0.144348	
0.128784	
0.146179	
0.200806	
0.218201	
0.230408	
0.21637	
0.219421	
0.209045	
0.276489	
0.271301	
0.289307	
0.300598	
0.3479	
0.327148	
0.375366	
0.350647	
0.350952	
0.297852	
0.222473	
0.197754	
0.246277	
0.230103	
0.207825	
0.171814	
0.1651	
0.0897217	
0.0665283	
0.0537109	
0.0363159	
-0.00427246	
-0.0256348	
-0.0646973	
-0.116882	
-0.166321	
-0.226135	
-0.26886	
-0.276794	
-0.267639	
-0.2771	
-0.231018	
-0.26001	
-0.316467	
-0.26947	
-0.197449	
-0.224304	
-0.19928	
-0.201416	
-0.193176	
-0.165405	
-0.133362	
-0.146179	
-0.13916	
-0.142517	
-0.141602	
-0.101929	
-0.0216675	
-0.0112915	
-0.0161743	
-0.0595093	
-0.117493	
-0.0759888	
-0.0579834	
-0.0524902	
-0.0613403	
-0.0796509	
-0.0796509	
-0.0415039	
0.0100708	
-0.0411987	
-0.0454712	
-0.0286865	
-0.0186157	
-0.0430298	
-0.0546265	
-0.0463867	
-0.0515747	
-0.0390625	
0.00671387	
-0.0137329	
-0.06073	
-0.0863647	
-0.0854492	
-0.0595093	
-0.0473022	
-0.0454712	
-0.0180054	
-0.038147	
-0.0695801	
-0.0344849	
0.00976563	
0.00915527	
-0.0402832	
0.00976563	
-0.0161743	
-0.0479126	
-0.055542	
-0.0305176	
-0.0506592	
-0.0152588	
-0.0198364	
-0.0320435	
-0.0524902	
-0.0369263	
-0.00640869	
-0.0149536	
-0.0296021	
-0.0128174	
0.00396729	
-0.0125122	
-0.0292969	
-0.0411987	
-0.0161743	
-0.00610352	
-0.0228882	
-0.0350952	
-0.0759888	
-0.0637817	
-0.0439453	
-0.017395	
-0.00183105	
0.0119019	
0.00946045	
-0.00823975	
-0.00183105	
-0.0256348	
-0.0494385	
-0.0280762	
-0.043335	
-0.0234985	
-0.0619507	
-0.0848389	
-0.0524902	
-0.00976563	
-0.0289917	
-0.0454712	
-0.0192261	
0.0134277	
-0.00610352	
-0.0216675	
-0.0256348	
-0.0012207	
0.0244141	
0.0195313	
0.0192261	
-0.000610352	
-0.0158691	
-0.00823975	
-0.03479	
-0.0228882	
-0.0195313	
-0.00732422	
0.00793457	
-0.0131226	
-0.00671387	
0.00793457	
-0.00915527	
-0.010376	
0.0204468	
0.0146484	
-0.0570679	
-0.0686646	
-0.0393677	
-0.0146484	
-0.00213623	
0.00427246	
0.0131226	
0.00854492	
-0.0653076	
-0.0195313	
0.0128174	
0.0164795	
-0.0161743	
-0.0491333	
-0.0186157	
0.0158691	
0.0012207	
0.00823975	
0.0119019	
-0.020752	
-0.0311279	
-0.0265503	
-0.00671387	
-0.0402832	
0.0372314	
0.0531006	
-0.0222778	
0.0161743	
0.0360107	
0.0421143	
0.0317383	
0.0115967	
0.0115967	
0.0125122	
0.0170898	
-0.00305176	
0.0106812	
0.0357056	
0.0378418	
0.0292969	
-0.00549316	
0.00854492	
0.0115967	
0.0213623	
0.0372314	
0.0192261	
0.0137329	
0.0210571	
0.000915527	
0.0341797	
0.0543213	
-0.000915527	
-0.0115967	
0.0222778	
0.0488281	
0.0628662	
0.0256348	
0.020752	
0.0552368	
0.0415039	
0.0317383	
0.0338745	
0.057373	
0.0836182	
0.118713	
0.0839233	
0.0552368	
0.0643921	
0.0759888	
0.0708008	
0.0708008	
0.0610352	
0.0552368	
0.045166	
0.0796509	
0.150146	
0.157166	
0.0830078	
0.0241089	
0.0415039	
0.0662231	
0.0231934	
0.0271606	
0.0439453	
0.0357056	
0.043335	
0.0338745	
0.00335693	
0.0354004	
0.022583	
0.0283813	
0.0354004	
0.0640869	
0.0576782	
0.0558472	
0.0570679	
0.0549316	
0.116272	
0.0830078	
0.0366211	
0.0402832	
0.0564575	
0.0531006	
0.0213623	
0.0189209	
0.0482178	
0.0158691	
0.0137329	
0.0268555	
0.0540161	
0.032959	
-0.00396729	
-0.0106812	
0.0286865	
0.0219727	
0.00946045	
0.0137329	
0.0186157	
0.0112915	
0.0411987	
0.0427246	
0.0387573	
0.00549316	
-0.0418091	
-0.0296021	
-0.00457764	
0.0317383	
-0.00213623	
-0.0524902	
-0.0195313	
0.017395	
0.00183105	
-0.0143433	
-0.0311279	
-0.0314331	
-0.0653076	
-0.0579834	
-0.0497437	
-0.0262451	
0.00976563	
-0.010376	
-0.0509644	
-0.0994873	
-0.0411987	
-0.0588989	
-0.0704956	
-0.0820923	
-0.0674438	
-0.055542	
-0.0210571	
-0.0100708	
-0.039978	
-0.0900269	
-0.11322	
-0.0912476	
-0.0506592	
-0.0289917	
-0.110779	
-0.137024	
-0.0973511	
-0.0479126	
-0.0656128	
-0.057373	
-0.057373	
-0.067749	
-0.124512	
-0.120544	
-0.137024	
-0.151367	
-0.113831	
-0.043335	
-0.0268555	
-0.0753784	
-0.0946045	
-0.0466919	
-0.0814819	
-0.0897217	
-0.0872803	
-0.0875854	
-0.0515747	
-0.0753784	
-0.090332	
-0.111694	
-0.0912476	
-0.0866699	
-0.0869751	
-0.0994873	
-0.114746	
-0.0872803	
-0.0698853	
-0.0448608	
-0.0427246	
-0.0894165	
-0.0643921	
-0.0476074	
-0.0735474	
-0.0686646	
-0.0314331	
0.0146484	
0.000305176	
-0.0601196	
-0.125122	
-0.143738	
-0.126038	
-0.102234	
-0.0540161	
-0.0765991	
-0.0268555	
-0.0149536	
-0.0714111	
-0.105591	
-0.0964355	
-0.0805664	
-0.0683594	
-0.0561523	
-0.0186157	
-0.0335693	
-0.0665283	
-0.0976563	
-0.111084	
-0.0939941	
-0.0946045	
-0.0750732	
-0.039978	
-0.0622559	
-0.0765991	
-0.0213623	
-0.0546265	
-0.0866699	
-0.0588989	
-0.0088501	
0.017395	
0.000305176	
-0.0708008	
-0.0448608	
-0.00701904	
-0.0415039	
-0.093689	
-0.134583	
-0.113831	
-0.088501	
-0.0393677	
-0.0286865	
-0.0119019	
-0.012207	
-0.0561523	
-0.108032	
-0.119629	
-0.0973511	
-0.0924683	
-0.0601196	
-0.0738525	
-0.0506592	
-0.0592041	
-0.0891113	
-0.0979614	
-0.0836182	
-0.0332642	
-0.0216675	
-0.0186157	
-0.038147	
-0.0448608	
-0.0457764	
-0.062561	
-0.0726318	
-0.0753784	
-0.0683594	
-0.0402832	
-0.0219727	
-0.0296021	
-0.0195313	
-0.0482178	
-0.0695801	
-0.0717163	
-0.0402832	
-0.0561523	
-0.0320435	
0.0616455	
0.0344849	
-0.088501	
-0.0958252	
-0.0595093	
-0.0561523	
-0.0576782	
-0.0463867	
-0.0390625	
-0.0509644	
-0.043335	
-0.039978	
-0.0405884	
-0.022583	
-0.0558472	
-0.0411987	
-0.0524902	
-0.0738525	
-0.0619507	
-0.0317383	
-0.0292969	
-0.0299072	
-0.020752	
-0.03479	
-0.0408936	
-0.0439453	
-0.0112915	
-0.00152588	
-0.0497437	
-0.0817871	
-0.0708008	
-0.0128174	
-0.0424194	
-0.0473022	
0.0201416	
-0.0146484	
-0.0234985	
-0.0338745	
-0.0241089	
0.00549316	
-0.0149536	
-0.03479	
-0.0415039	
-0.020752	
-0.0137329	
-0.0418091	
-0.102539	
-0.0784302	
-0.0296021	
-0.0109863	
-0.06073	
-0.0445557	
-0.0408936	
-0.0228882	
-0.0256348	
-0.0128174	
-0.0357056	
-0.0314331	
-0.0140381	
-0.0152588	
0.020752	
-0.0170898	
-0.0354004	
-0.027771	
-0.03479	
-0.0393677	
-0.0292969	
-0.0286865	
-0.0326538	
-0.027771	
-0.0259399	
-0.0463867	
-0.0088501	
-0.0714111	
-0.0949097	
-0.0543213	
-0.00549316	
-0.0408936	
-0.0741577	
-0.0518799	
-0.055542	
-0.0323486	
0.022583	
-0.00183105	
-0.0582886	
-0.045166	
-0.0201416	
-0.0320435	
-0.0219727	
-0.0387573	
-0.0149536	
-0.0439453	
-0.0836182	
-0.0860596	
-0.0799561	
-0.0588989	
0.00366211	
0.0320435	
-0.0317383	
-0.0714111	
-0.0558472	
-0.0650024	
-0.0708008	
-0.0720215	
-0.0991821	
-0.0427246	
0.0332642	
0.0704956	
-0.00946045	
-0.043335	
-0.0671387	
-0.0497437	
-0.0158691	
-0.0280762	
-0.0634766	
-0.0656128	
-0.0759888	
-0.0671387	
-0.0265503	
-0.0567627	
-0.0714111	
-0.00549316	
-0.00244141	
-0.0421143	
-0.0546265	
-0.0213623	
-0.020752	
-0.0332642	
-0.0372314	
-0.0579834	
-0.0601196	
-0.0454712	
-0.0158691	
0.0137329	
0.017395	
-0.0546265	
-0.0799561	
-0.0408936	
-0.00854492	
-0.039978	
-0.0299072	
-0.0415039	
-0.0775146	
-0.0344849	
0.00976563	
-0.0271606	
-0.0402832	
-0.072937	
-0.0640869	
-0.0299072	
-0.0302124	
-0.0393677	
-0.0393677	
-0.0302124	
-0.0198364	
-0.0296021	
-0.0531006	
-0.0531006	
-0.0549316	
-0.0167847	
-0.0216675	
-0.0509644	
-0.0457764	
-0.0662231	
-0.0827026	
-0.0866699	
-0.090332	
-0.0933838	
-0.0762939	
-0.00335693	
0.0265503	
-0.0579834	
-0.0375366	
0.015564	
-0.0115967	
-0.0531006	
-0.0518799	
-0.0482178	
-0.0582886	
-0.0439453	
-0.0375366	
-0.06073	
-0.0610352	
-0.0500488	
-0.0354004	
-0.022583	
-0.0317383	
-0.0473022	
-0.0274658	
-0.0253296	
-0.0634766	
-0.0857544	
-0.0262451	
0.00915527	
-0.0335693	
-0.062561	
-0.0949097	
-0.0262451	
-0.0323486	
-0.0390625	
0.0106812	
-0.0262451	
-0.0491333	
-0.0341797	
-0.00488281	
-0.00305176	
-0.0701904	
-0.0775146	
-0.0808716	
-0.0335693	
-0.00366211	
-0.00549316	
-0.03479	
-0.0195313	
-0.0299072	
-0.0674438	
-0.0280762	
-0.0146484	
-0.0335693	
-0.0387573	
-0.0506592	
-0.0378418	
-0.0350952	
-0.0546265	
-0.0500488	
-0.0622559	
-0.0552368	
-0.0714111	
-0.0500488	
-0.0170898	
-0.00762939	
-0.0311279	
-0.078125	
-0.0411987	
-0.0283813	
0.00946045	
-0.00183105	
-0.0390625	
-0.0564575	
-0.0405884	
0.0793457	
0.0558472	
-0.0540161	
-0.00518799	
-0.0534058	
-0.101929	
-0.0860596	
-0.0527954	
-0.0613403	
-0.0302124	
-0.0244141	
-0.0195313	
-0.0378418	
-0.0680542	
-0.0674438	
-0.00823975	
-0.0360107	
-0.0820923	
-0.0732422	
-0.0375366	
-0.0152588	
-0.0274658	
-0.0466919	
-0.0610352	
-0.0320435	
-0.0332642	
-0.0213623	
-0.0265503	
-0.0390625	
-0.0253296	
-0.0286865	
-0.0469971	
-0.0241089	
-0.0335693	
-0.0289917	
-0.0704956	
-0.055542	
-0.0195313	
-0.0442505	
-0.0668335	
-0.0344849	
0.00152588	
-0.00274658	
-0.0259399	
-0.0588989	
-0.0674438	
-0.0357056	
-0.0119019	
-0.00518799	
-0.0177002	
-0.0463867	
-0.0387573	
0.0363159	
0.0292969	
-0.0256348	
-0.0799561	
-0.101929	
-0.0491333	
-0.0158691	
-0.0140381	
-0.0411987	
-0.0772095	
-0.0973511	
-0.0823975	
-0.0701904	
-0.0088501	
-0.0302124	
-0.0946045	
-0.0942993	
-0.0930786	
-0.0857544	
-0.0274658	
0.0204468	
-0.0262451	
-0.0134277	
-0.0228882	
-0.0244141	
0.00396729	
0.0119019	
-0.00732422	
-0.0302124	
-0.0894165	
-0.107117	
-0.0665283	
-0.0268555	
-0.0140381	
-0.0195313	
0.0146484	
-0.038147	
-0.0344849	
-0.0357056	
-0.0140381	
-0.0415039	
-0.0454712	
-0.0219727	
-0.0189209	
-0.0234985	
-0.0198364	
-0.0180054	
-0.0125122	
0.0131226	
0	
-0.0244141	
-0.0411987	
-0.0701904	
-0.0531006	
-0.0274658	
-0.020752	
-0.0250244	
-0.00946045	
0.0619507	
0.0537109	
0.00335693	
-0.0543213	
-0.0701904	
-0.0512695	
-0.0106812	
0.00915527	
-0.0131226	
-0.0338745	
-0.0137329	
0.0204468	
-0.0192261	
-0.0738525	
-0.0582886	
-0.020752	
-0.00305176	
0.00152588	
-0.00610352	
0.010376	
0	
0.0195313	
0.0442505	
0.00396729	
-0.0195313	
-0.0192261	
-0.00305176	
-0.0393677	
-0.0350952	
0.0177002	
0.0222778	
-0.0323486	
-0.039978	
0.00427246	
0.00610352	
0.00152588	
-0.010376	
-0.017395	
-0.00549316	
-0.00762939	
0.0509644	
0.032959	
-0.0402832	
-0.0457764	
-0.00732422	
-0.0369263	
-0.0604248	
-0.0170898	
-0.0274658	
-0.0698853	
-0.0732422	
-0.0601196	
-0.0476074	
-0.0338745	
-0.0521851	
-0.0646973	
-0.0631714	
-0.0576782	
-0.0421143	
-0.0640869	
-0.0582886	
-0.0579834	
-0.0622559	
-0.0610352	
-0.0469971	
-0.0518799	
-0.0817871	
-0.0753784	
-0.0582886	
-0.0222778	
-0.0488281	
-0.0756836	
-0.0485229	
0.00488281	
-0.00518799	
-0.0827026	
-0.0619507	
-0.043335	
0.00244141	
-0.0378418	
-0.039978	
0.00732422	
0.012207	
-0.0360107	
-0.0509644	
-0.0283813	
-0.0314331	
-0.0534058	
-0.0177002	
-0.0146484	
-0.0598145	
-0.0991821	
-0.108032	
-0.116272	
-0.0680542	
-0.0488281	
-0.0585938	
-0.0500488	
-0.085144	
-0.0946045	
-0.0613403	
-0.03479	
-0.022583	
0.0216675	
-0.00610352	
-0.0540161	
-0.0576782	
-0.0177002	
0.015564	
-0.0396729	
-0.0839233	
-0.0671387	
-0.0552368	
-0.0335693	
-0.0268555	
-0.0158691	
-0.0183105	
-0.0540161	
-0.0161743	
-0.0115967	
-0.0286865	
-0.0415039	
-0.027771	
-0.0222778	
-0.0146484	
-0.00732422	
0.0247192	
0.0366211	
0.065918	
0.0906372	
0.11322	
0.146484	
0.174561	
0.215149	
0.207214	
0.253601	
0.258179	
0.268555	
0.257263	
0.315857	
0.325928	
0.340576	
0.351257	
0.345459	
0.375366	
0.339355	
0.255737	
0.22644	
0.267334	
0.257263	
0.228882	
0.220642	
0.223083	
0.227051	
0.194397	
0.168762	
0.157166	
0.116577	
0.0479126	
0.0234985	
0.0201416	
-0.0881958	
-0.150757	
-0.196838	
-0.238647	
-0.263672	
-0.301819	
-0.272217	
-0.223389	
-0.246277	
-0.28656	
-0.31189	
-0.256958	
-0.205688	
-0.201111	
-0.239868	
-0.207825	
-0.186768	
-0.222168	
-0.180359	
-0.166016	
-0.15686	
-0.149536	
-0.134583	
-0.121155	
-0.119934	
-0.0881958	
-0.06073	
-0.0622559	
-0.0595093	
-0.0637817	
-0.055542	
-0.0534058	
-0.0177002	
-0.0332642	
-0.0653076	
-0.0909424	
-0.0790405	
-0.0582886	
-0.0262451	
-0.0219727	
-0.0628662	
-0.0744629	
-0.0268555	
-0.0534058	
-0.0946045	
-0.0473022	
-0.0326538	
-0.0372314	
-0.0274658	
-0.0564575	
-0.0765991	
-0.0680542	
-0.0457764	
-0.0567627	
-0.0656128	
-0.0140381	
0.00457764	
-0.0177002	
-0.0585938	
-0.0521851	
-0.0244141	
-0.0210571	
-0.0415039	
-0.0393677	
-0.0134277	
0.045166	
0.00946045	
-0.0189209	
-0.0198364	
-0.065918	
-0.0256348	
-0.027771	
-0.0485229	
-0.090332	
-0.0457764	
-0.038147	
-0.0631714	
-0.09552	
-0.0534058	
-0.0302124	
-0.06073	
-0.0482178	
-0.0222778	
0.00671387	
-0.0320435	
-0.0244141	
0.0198364	
-0.010376	
-0.0286865	
-0.0216675	
0.000610352	
0.0323486	
0.0100708	
-0.0177002	
-0.0201416	
0.00854492	
0	
-0.0454712	
-0.0967407	
-0.0802612	
-0.0604248	
-0.0274658	
-0.0494385	
-0.0448608	
-0.00610352	
0.0408936	
0.0357056	
-0.00915527	
-0.00427246	
-0.0109863	
-0.0299072	
-0.0646973	
0.0164795	
0.0286865	
-0.0234985	
-0.0314331	
-0.0167847	
0.00457764	
-0.043335	
-0.038147	
-0.00854492	
-0.0146484	
-0.0302124	
0.0106812	
-0.0012207	
-0.00732422	
-0.0320435	
-0.0299072	
-0.0198364	
0.00488281	
0.0186157	
0.0164795	
-0.012207	
-0.0186157	
-0.0314331	
0.0231934	
0.0109863	
-0.0302124	
-0.0585938	
-0.0717163	
-0.0497437	
0.0143433	
0.0299072	
-0.00427246	
-0.0531006	
-0.0454712	
-0.017395	
-0.00152588	
0.017395	
-0.00183105	
-0.0326538	
-0.0195313	
-0.017395	
-0.00915527	
0.0088501	
0.0088501	
0.0357056	
0.0741577	
0.0527954	
0.0189209	
-0.00976563	
-0.0311279	
-0.00640869	
0.0106812	
0.0253296	
0.0149536	
0	
0	
0.00793457	
0.000305176	
0.0112915	
0.00305176	
0.0137329	
0.0442505	
0.0650024	
0.0820923	
0.0326538	
0.022583	
0.0448608	
0.0634766	
0.0531006	
0.00732422	
0.0106812	
0.0848389	
0.0708008	
-0.00579834	
0.0164795	
0.0808716	
0.0289917	
0.0125122	
0.0357056	
0.0604248	
0.0411987	
0.0512695	
0.0411987	
0.0326538	
0.0338745	
0.0863647	
0.0888062	
0.0656128	
0.0393677	
0.0396729	
0.0186157	
0.0177002	
0.0500488	
0.083313	
0.0460815	
0.0338745	
0.057373	
0.0473022	
0.0497437	
0.0296021	
0.0247192	
0.0695801	
0.0894165	
0.101013	
0.0732422	
0.0460815	
0.0686646	
0.055542	
0.0622559	
0.0579834	
0.0790405	
0.0942993	
0.0119019	
0.0308228	
0.0564575	
0.0744629	
0.127869	
0.0942993	
0.0384521	
0.0662231	
0.116577	
0.0686646	
0.0531006	
0	
-0.0512695	
-0.0158691	
0.065918	
0.0524902	
0.0387573	
0.0323486	
0.027771	
0.00640869	
-0.0244141	
0.00640869	
0.0204468	
0.00244141	
-0.00274658	
-0.00671387	
0.00183105	
0.0259399	
0.0213623	
-0.0106812	
-0.0210571	
-0.0158691	
-0.0253296	
-0.0216675	
0.0180054	
0.0576782	
-0.00213623	
-0.0372314	
-0.0219727	
-0.032959	
-0.0585938	
-0.0650024	
-0.0552368	
-0.0439453	
-0.065918	
-0.0363159	
0.00640869	
-0.0585938	
-0.0726318	
-0.114746	
-0.119019	
-0.038147	
0.0238037	
0.0100708	
-0.0296021	
-0.0714111	
-0.0741577	
-0.0805664	
-0.0906372	
-0.0717163	
-0.127563	
-0.108643	
-0.0543213	
-0.0827026	
-0.0683594	
-0.0796509	
-0.0817871	
-0.0897217	
-0.0924683	
-0.0515747	
-0.0686646	
-0.112	
-0.110474	
-0.132141	
-0.158691	
-0.119019	
-0.106506	
-0.0689697	
-0.0790405	
-0.0836182	
-0.0622559	
-0.115967	
-0.0894165	
-0.0592041	
-0.0143433	
-0.0436401	
-0.0918579	
-0.0967407	
-0.0869751	
-0.0860596	
-0.03479	
-0.0469971	
-0.0668335	
-0.101929	
-0.101318	
-0.0759888	
-0.0805664	
-0.0912476	
-0.0881958	
-0.0289917	
-0.0109863	
-0.0671387	
-0.0952148	
-0.0717163	
-0.0439453	
-0.0799561	
-0.0860596	
-0.10376	
-0.0933838	
-0.0610352	
-0.0738525	
-0.06073	
-0.0622559	
-0.0799561	
-0.120544	
-0.0985718	
-0.0942993	
-0.0292969	
-0.0506592	
-0.078125	
-0.0863647	
-0.111084	
-0.0912476	
-0.0683594	
-0.0268555	
-0.000915527	
-0.0180054	
-0.0750732	
-0.0732422	
-0.0897217	
-0.109863	
-0.0588989	
-0.00732422	
-0.0186157	
-0.0466919	
-0.0747681	
-0.0650024	
-0.0671387	
-0.03479	
-0.0338745	
-0.0735474	
-0.0588989	
-0.0604248	
-0.0787354	
-0.101929	
-0.0613403	
-0.043335	
-0.0177002	
-0.0299072	
-0.045166	
-0.0848389	
-0.126038	
-0.116272	
-0.0653076	
0	
-0.00640869	
-0.038147	
-0.0558472	
-0.0848389	
-0.0958252	
-0.0897217	
-0.06073	
-0.0534058	
-0.0848389	
-0.0613403	
-0.0488281	
-0.0549316	
-0.0491333	
-0.062561	
-0.0671387	
-0.0469971	
-0.0830078	
-0.055542	
-0.0256348	
-0.0299072	
-0.0411987	
-0.0289917	
-0.0134277	
-0.0228882	
-0.0494385	
-0.0448608	
-0.0662231	
-0.0296021	
0.00518799	
-0.0598145	
-0.0656128	
-0.0167847	
-0.0177002	
-0.0741577	
-0.0891113	
-0.0958252	
-0.0827026	
-0.0900269	
-0.0469971	
0.00793457	
0.022583	
0.0378418	
0.00488281	
-0.0515747	
-0.0326538	
-0.000610352	
-0.0436401	
-0.0787354	
-0.0952148	
-0.0650024	
-0.0238037	
0.0170898	
-0.00183105	
-0.0357056	
-0.0808716	
-0.0817871	
-0.055542	
0.0418091	
0.020752	
-0.0442505	
-0.0918579	
-0.0918579	
-0.0585938	
0.0326538	
-0.0134277	
-0.00244141	
0	
0.00732422	
-0.0296021	
-0.0323486	
-0.0387573	
-0.0686646	
-0.0622559	
-0.0860596	
-0.0805664	
-0.0494385	
-0.0448608	
-0.0326538	
-0.03479	
-0.0161743	
-0.0320435	
-0.0360107	
-0.0305176	
-0.039978	
-0.0411987	
-0.0463867	
-0.0430298	
-0.0463867	
-0.0689697	
-0.0732422	
0.00518799	
0.0134277	
-0.0119019	
-0.0357056	
-0.0131226	
-0.0131226	
-0.0515747	
-0.0906372	
-0.0726318	
-0.0411987	
-0.0314331	
-0.0219727	
-0.00915527	
-0.00854492	
-0.0244141	
-0.0534058	
-0.0457764	
-0.0610352	
-0.0854492	
-0.0360107	
-0.000915527	
-0.00762939	
0.0616455	
-0.00762939	
-0.0442505	
-0.0656128	
-0.0820923	
-0.105286	
-0.0473022	
-0.0228882	
-0.0878906	
-0.0592041	
-0.0360107	
-0.0234985	
-0.00610352	
-0.0216675	
-0.0442505	
-0.0256348	
-0.0299072	
-0.0430298	
-0.0418091	
-0.0213623	
-0.0198364	
0.0198364	
0.00610352	
-0.0299072	
-0.0564575	
-0.0564575	
-0.0238037	
0.00640869	
-0.0305176	
-0.067749	
-0.0524902	
-0.0521851	
-0.0488281	
-0.0146484	
-0.0210571	
-0.00549316	
-0.0152588	
-0.0668335	
-0.0500488	
-0.0305176	
-0.0448608	
-0.0476074	
-0.0302124	
-0.0311279	
-0.0842285	
-0.0848389	
-0.0689697	
-0.0656128	
-0.0439453	
-0.0445557	
-0.0427246	
-0.027771	
-0.0170898	
-0.0292969	
-0.0561523	
-0.065918	
-0.0442505	
-0.0222778	
-0.0415039	
-0.0497437	
-0.0582886	
-0.0506592	
-0.0326538	
0.020752	
-0.0112915	
-0.0656128	
-0.0784302	
-0.0640869	
-0.0457764	
-0.0405884	
-0.0238037	
-0.0421143	
-0.0256348	
-0.0238037	
-0.0567627	
-0.0744629	
-0.0585938	
-0.0543213	
-0.0494385	
-0.0125122	
-0.0146484	
0.000915527	
-0.0158691	
0.00549316	
0.0332642	
-0.0167847	
-0.0518799	
-0.0323486	
-0.0500488	
-0.0463867	
-0.00335693	
-0.0131226	
-0.0665283	
-0.0863647	
-0.0375366	
-0.0350952	
-0.0521851	
-0.0442505	
-0.0445557	
-0.0518799	
-0.0518799	
-0.0558472	
-0.0576782	
-0.0582886	
-0.0427246	
-0.0170898	
-0.0244141	
0.0177002	
-0.0109863	
-0.0311279	
-0.00762939	
-0.0680542	
-0.0878906	
-0.0292969	
-0.0494385	
-0.0732422	
-0.0543213	
-0.0241089	
-0.0140381	
-0.0405884	
-0.0531006	
-0.022583	
-0.0247192	
-0.0805664	
-0.0979614	
-0.0848389	
-0.0836182	
-0.0469971	
-0.027771	
-0.00183105	
-0.0134277	
-0.0213623	
-0.0341797	
-0.0402832	
-0.0436401	
-0.012207	
0.0292969	
-0.00823975	
-0.0335693	
-0.0491333	
-0.0128174	
-0.0195313	
0.0106812	
-0.0366211	
-0.0723267	
-0.062561	
-0.0265503	
-0.0408936	
-0.0570679	
-0.0646973	
-0.103455	
-0.0354004	
-0.0421143	
-0.0546265	
-0.06073	
-0.0476074	
-0.0012207	
0.00427246	
-0.00152588	
-0.0588989	
-0.0405884	
-0.0222778	
-0.0390625	
-0.0411987	
-0.0445557	
-0.0335693	
-0.039978	
-0.0543213	
-0.0424194	
-0.0500488	
-0.0439453	
-0.045166	
-0.045166	
-0.0241089	
-0.00549316	
-0.0390625	
-0.0180054	
-0.00366211	
-0.00976563	
-0.0717163	
-0.0979614	
-0.0463867	
-0.0100708	
0.0204468	
0.0106812	
-0.0265503	
-0.0466919	
-0.0427246	
-0.0631714	
-0.0628662	
-0.0534058	
-0.0363159	
-0.0604248	
-0.050354	
-0.00274658	
-0.0195313	
-0.0241089	
-0.0466919	
-0.0463867	
0.00946045	
0.03479	
0.00488281	
-0.0146484	
-0.0369263	
-0.0247192	
-0.0588989	
-0.0350952	
-0.017395	
-0.0390625	
-0.0448608	
-0.055542	
-0.0726318	
-0.0747681	
-0.0604248	
-0.0195313	
-0.0271606	
-0.0402832	
-0.0448608	
-0.045166	
-0.0286865	
-0.00549316	
-0.0457764	
-0.0735474	
-0.062561	
-0.0521851	
-0.0317383	
-0.0512695	
-0.0579834	
-0.00640869	
0.0231934	
-0.00732422	
-0.0320435	
-0.0201416	
0.0253296	
0.00488281	
-0.0494385	
-0.111389	
-0.0830078	
-0.0408936	
0.0131226	
0.0274658	
-0.0170898	
-0.0305176	
-0.0604248	
-0.0268555	
0.00976563	
0.00579834	
-0.0473022	
-0.106506	
-0.0570679	
0.0332642	
-0.012207	
-0.0500488	
-0.0244141	
-0.0338745	
-0.0408936	
-0.0424194	
-0.0390625	
-0.0283813	
-0.00366211	
-0.0271606	
-0.0210571	
-0.0146484	
-0.0234985	
-0.0500488	
-0.0210571	
-0.00335693	
-0.0421143	
-0.0375366	
-0.0219727	
0.000610352	
0.0338745	
-0.0405884	
-0.0662231	
-0.0360107	
-0.0268555	
-0.0668335	
-0.050354	
-0.00823975	
0.00823975	
0.000915527	
-0.0338745	
-0.0708008	
-0.038147	
0.000915527	
0.0308228	
0.00701904	
-0.0268555	
-0.0479126	
-0.0137329	
-0.00549316	
-0.0146484	
-0.0445557	
-0.0390625	
-0.0195313	
-0.0250244	
0.0320435	
0.015564	
-0.0183105	
0.0146484	
0.0570679	
0.0119019	
-0.0402832	
0	
-0.000610352	
-0.0314331	
-0.0442505	
-0.0326538	
-0.0262451	
-0.00518799	
0.000915527	
-0.00640869	
-0.00732422	
0.00152588	
0.0112915	
-0.00854492	
0.0134277	
0.0610352	
0.0323486	
-0.0280762	
-0.0363159	
0.0161743	
0.0744629	
0.0170898	
-0.0534058	
-0.0521851	
-0.0396729	
-0.0396729	
-0.0311279	
-0.0302124	
-0.0524902	
-0.0549316	
-0.0927734	
-0.0952148	
-0.0759888	
-0.0689697	
-0.0570679	
-0.0241089	
-0.0256348	
-0.0415039	
-0.0405884	
-0.0372314	
-0.0723267	
-0.0579834	
-0.0418091	
-0.0720215	
-0.0567627	
-0.0204468	
-0.0109863	
-0.0439453	
-0.0793457	
-0.0686646	
-0.055542	
-0.0643921	
-0.0674438	
-0.0683594	
-0.0311279	
-0.0540161	
-0.0582886	
-0.0265503	
-0.0506592	
-0.0454712	
-0.0402832	
-0.0357056	
-0.0457764	
-0.0378418	
-0.0195313	
-0.0476074	
-0.0390625	
-0.0149536	
-0.0344849	
-0.0534058	
-0.0561523	
-0.0662231	
-0.0463867	
-0.020752	
-0.0509644	
-0.0552368	
-0.0262451	
0.032959	
-0.0476074	
-0.10437	
-0.0222778	
0.0125122	
-0.0369263	
-0.0762939	
-0.0817871	
-0.0112915	
-0.0170898	
-0.0872803	
-0.0909424	
-0.0521851	
-0.0653076	
-0.0695801	
-0.0360107	
-0.0234985	
-0.0271606	
-0.0317383	
-0.038147	
-0.0222778	
0.00549316	
0.0488281	
0.0479126	
0.0158691	
-0.0238037	
-0.0180054	
0.0161743	
0.0692749	
0.101318	
0.129089	
0.132141	
0.115967	
0.159302	
0.187683	
0.212097	
0.239258	
0.238342	
0.303345	
0.307922	
0.374756	
0.382996	
0.351563	
0.380554	
0.378418	
0.357056	
0.289001	
0.22644	
0.231323	
0.210876	
0.230408	
0.221252	
0.282288	
0.193176	
0.195618	
0.246277	
0.187378	
0.115967	
0.0448608	
0.0195313	
-0.000610352	
-0.0253296	
-0.0668335	
-0.141296	
-0.224609	
-0.229187	
-0.246887	
-0.265808	
-0.265198	
-0.26825	
-0.257568	
-0.274658	
-0.269165	
-0.254822	
-0.292053	
-0.256958	
-0.249634	
-0.197144	
-0.157471	
-0.203857	
-0.205383	
-0.139465	
-0.118408	
-0.105591	
-0.112	
-0.123901	
-0.133362	
-0.129089	
-0.106812	
-0.0637817	
-0.0424194	
-0.0411987	
-0.0259399	
-0.0341797	
-0.0619507	
-0.0643921	
-0.085144	
-0.0732422	
-0.0836182	
-0.0463867	
-0.0201416	
-0.0390625	
-0.050354	
-0.0222778	
-0.0244141	
-0.0299072	
-0.0238037	
-0.00274658	
-0.0296021	
-0.0744629	
-0.0723267	
-0.0671387	
-0.0827026	
-0.0567627	
-0.0201416	
-0.0372314	
-0.0619507	
-0.0195313	
-0.00671387	
-0.0338745	
-0.0485229	
-0.020752	
-0.0253296	
-0.0183105	
-0.00732422	
0.0177002	
-0.0738525	
-0.0726318	
-0.0390625	
-0.0289917	
-0.0265503	
-0.0442505	
-0.0115967	
-0.0244141	
-0.0521851	
-0.0631714	
-0.0375366	
-0.0265503	
-0.0552368	
-0.0497437	
-0.0439453	
-0.043335	
-0.0527954	
-0.0360107	
-0.0274658	
-0.0546265	
-0.0213623	
-0.00823975	
0.0115967	
-0.0109863	
-0.00183105	
0.00915527	
-0.0213623	
-0.0241089	
-0.0125122	
-0.0405884	
-0.038147	
-0.0280762	
-0.0320435	
-0.0140381	
-0.0268555	
-0.0439453	
-0.0262451	
-0.0195313	
-0.00488281	
-0.0338745	
-0.0189209	
-0.0183105	
-0.0350952	
-0.0579834	
-0.038147	
-0.0210571	
0.0793457	
0.0564575	
-0.00305176	
-0.0201416	
-0.00366211	
-0.0204468	
-0.045166	
-0.0335693	
-0.0469971	
-0.0430298	
-0.0170898	
-0.0256348	
-0.0152588	
-0.0378418	
-0.0476074	
-0.0177002	
0.0311279	
0.0552368	
0.0125122	
0.0265503	
0.00823975	
0.0378418	
-0.0106812	
-0.00671387	
-0.0268555	
0.000915527	
-0.0134277	
-0.0448608	
-0.027771	
-0.022583	
-0.0201416	
-0.0161743	
0.00518799	
0.0250244	
0.00732422	
-0.0189209	
-0.027771	
-0.0088501	
-0.00335693	
-0.0140381	
-0.0216675	
-0.0210571	
-0.0244141	
0.00488281	
0.0558472	
0.0604248	
0.0170898	
-0.0219727	
-0.0149536	
-0.00366211	
0.0119019	
0.0512695	
0.0469971	
-0.00946045	
-0.0213623	
-0.0100708	
-0.0186157	
0.0271606	
0.0247192	
0.0253296	
-0.00946045	
-0.0112915	
-0.00457764	
0.00854492	
0.0891113	
0.0799561	
0.0952148	
0.0180054	
0.00244141	
0.012207	
0.0350952	
0.0582886	
0.0537109	
0.0430298	
0.050354	
0.057373	
0.062561	
0.0701904	
0.124512	
0.115356	
0.0985718	
0.0732422	
0.0231934	
0.0131226	
0.0424194	
0.0512695	
0.065918	
0.108337	
0.0646973	
0.0259399	
0.0292969	
0.0308228	
0.0476074	
0.0701904	
0.0811768	
0.0680542	
0.0558472	
0.0378418	
0.0317383	
0.0622559	
0.11261	
0.105286	
0.0671387	
0.0247192	
0.0201416	
0.0466919	
0.0521851	
0.0408936	
0.0640869	
0.0872803	
0.0598145	
0.0204468	
-0.000610352	
0.010376	
0.050354	
0.0537109	
0.065918	
0.11261	
0.0970459	
0.102844	
0.0338745	
0.0411987	
0.00549316	
-0.00488281	
0.0204468	
0.0384521	
0.050354	
0.0231934	
0.00701904	
0.0308228	
0.0634766	
0.0296021	
0.0244141	
0.0119019	
0.00427246	
0.0521851	
0.0219727	
0.0012207	
0.0299072	
0.0216675	
-0.0350952	
-0.0106812	
0.00732422	
-0.0338745	
0.00427246	
0.0604248	
0.0149536	
0.022583	
0.0473022	
0.00549316	
0.00183105	
-0.0518799	
-0.0875854	
-0.0469971	
-0.0149536	
-0.00549316	
0.00915527	
-0.0292969	
-0.0680542	
-0.0750732	
-0.0579834	
-0.0137329	
-0.0280762	
-0.0463867	
-0.0415039	
-0.100098	
-0.0726318	
-0.0143433	
-0.0106812	
-0.0253296	
-0.078125	
-0.0793457	
-0.0564575	
-0.106201	
-0.118103	
-0.10498	
-0.105896	
-0.0915527	
-0.0662231	
-0.0668335	
-0.067749	
-0.0906372	
-0.0698853	
-0.0808716	
-0.102539	
-0.10376	
-0.0747681	
-0.0753784	
-0.110168	
-0.140991	
-0.157166	
-0.149841	
-0.130005	
-0.0402832	
-0.0357056	
-0.0396729	
-0.0546265	
-0.0259399	
-0.0790405	
-0.104065	
-0.085144	
-0.0683594	
-0.0570679	
-0.0900269	
-0.0717163	
-0.0338745	
-0.0253296	
-0.0668335	
-0.0732422	
-0.106812	
-0.118103	
-0.0878906	
-0.0561523	
-0.0491333	
-0.0640869	
-0.0640869	
-0.0827026	
-0.0631714	
-0.0320435	
-0.0473022	
-0.078125	
-0.0784302	
-0.0701904	
-0.0576782	
-0.0680542	
-0.0527954	
-0.0811768	
-0.0933838	
-0.0549316	
-0.0482178	
-0.0802612	
-0.0897217	
-0.13031	
-0.122681	
-0.0686646	
-0.00488281	
-0.0234985	
-0.0787354	
-0.109863	
-0.112305	
-0.100403	
-0.093689	
-0.0897217	
-0.0210571	
-0.0241089	
-0.0476074	
-0.0613403	
-0.085144	
-0.0689697	
-0.0521851	
-0.0338745	
-0.0363159	
-0.0775146	
-0.0720215	
-0.038147	
-0.0808716	
-0.0643921	
-0.0619507	
-0.062561	
-0.0125122	
-0.0320435	
-0.0665283	
-0.0796509	
-0.0604248	
-0.0579834	
-0.0341797	
-0.055542	
-0.0405884	
-0.0411987	
0.0012207	
-0.0491333	
-0.0643921	
-0.0366211	
-0.0665283	
-0.0784302	
-0.0350952	
-0.0186157	
-0.0485229	
-0.11261	
-0.144958	
-0.0643921	
0.0326538	
0.0485229	
-0.0152588	
-0.0570679	
-0.071106	
-0.0680542	
-0.057373	
-0.0491333	
-0.0204468	
-0.0787354	
-0.0741577	
-0.0427246	
-0.0619507	
-0.03479	
-0.020752	
-0.0296021	
-0.072937	
-0.0765991	
-0.0350952	
-0.00579834	
0.0140381	
-0.038147	
-0.0424194	
-0.0198364	
-0.0210571	
-0.0411987	
-0.0708008	
-0.0787354	
-0.0268555	
-0.0222778	
-0.0515747	
-0.0457764	
-0.0488281	
-0.0653076	
-0.057373	
-0.0582886	
-0.0698853	
-0.0320435	
0.050354	
0.0115967	
-0.0253296	
-0.0982666	
-0.0598145	
-0.00671387	
-0.0286865	
-0.0143433	
0.0177002	
-0.0302124	
-0.0448608	
-0.0628662	
-0.0595093	
-0.0588989	
-0.00518799	
0.0186157	
-0.0265503	
-0.0372314	
-0.0790405	
-0.0540161	
-0.0598145	
-0.0106812	
-0.0177002	
-0.027771	
-0.0454712	
-0.0576782	
-0.0305176	
-0.0259399	
-0.0286865	
-0.0662231	
-0.0759888	
-0.0772095	
-0.0442505	
-0.0338745	
-0.0375366	
-0.0668335	
-0.0604248	
-0.022583	
-0.0302124	
-0.0366211	
-0.057373	
-0.0820923	
-0.0234985	
-0.00396729	
-0.0360107	
-0.0100708	
0.022583	
-0.0268555	
-0.0289917	
-0.0286865	
-0.039978	
-0.0408936	
-0.0262451	
-0.0140381	
-0.00366211	
-0.0292969	
-0.0350952	
-0.0149536	
-0.0372314	
-0.0567627	
-0.039978	
-0.038147	
-0.00701904	
-0.00518799	
-0.0363159	
-0.0506592	
0.0143433	
-0.0280762	
-0.0454712	
-0.0357056	
-0.0765991	
-0.0863647	
-0.0546265	
-0.0326538	
-0.0320435	
-0.0296021	
-0.00854492	
-0.0140381	
-0.0424194	
-0.0363159	
-0.0119019	
0.00305176	
0.000610352	
-0.0311279	
-0.0674438	
-0.038147	
-0.0189209	
-0.0323486	
-0.0811768	
-0.0619507	
0.00305176	
-0.0219727	
0.00366211	
0	
-0.062561	
-0.055542	
-0.0619507	
-0.0189209	
0.0671387	
0.000915527	
-0.0735474	
-0.114441	
-0.100708	
-0.0274658	
-0.010376	
-0.065918	
-0.0534058	
-0.00854492	
-0.0192261	
-0.0680542	
-0.0485229	
-0.0250244	
-0.0564575	
-0.0415039	
-0.0253296	
-0.0323486	
-0.0201416	
-0.00701904	
0.0012207	
-0.0137329	
-0.0119019	
-0.0125122	
-0.0439453	
-0.0723267	
-0.0582886	
-0.0741577	
-0.0665283	
-0.0402832	
-0.0515747	
-0.0506592	
-0.0476074	
-0.062561	
-0.0701904	
-0.0683594	
-0.0653076	
0.0314331	
-0.00335693	
-0.0497437	
-0.0622559	
0.00152588	
-0.0241089	
-0.0775146	
-0.0552368	
-0.0280762	
-0.0195313	
-0.020752	
-0.0360107	
-0.0439453	
-0.0280762	
-0.0350952	
-0.0305176	
-0.045166	
-0.0323486	
-0.0604248	
-0.0610352	
-0.0515747	
-0.0424194	
-0.0476074	
-0.0268555	
-0.0106812	
-0.00915527	
-0.0228882	
-0.0259399	
0.0271606	
0.00152588	
-0.0540161	
-0.0592041	
-0.0628662	
-0.071106	
-0.0662231	
-0.0476074	
-0.0476074	
-0.0497437	
-0.0494385	
-0.0372314	
-0.039978	
-0.0164795	
0.00152588	
-0.0186157	
-0.0167847	
-0.0265503	
-0.0183105	
-0.0378418	
-0.06073	
-0.0683594	
-0.0454712	
-0.0491333	
-0.0643921	
-0.0494385	
-0.0192261	
-0.0527954	
-0.0439453	
-0.0219727	
-0.0341797	
-0.0500488	
-0.0393677	
-0.0271606	
-0.0262451	
-0.0585938	
-0.0427246	
-0.0396729	
-0.0485229	
-0.0088501	
0.00335693	
0.0259399	
-0.00518799	
-0.0274658	
0.0393677	
0.0335693	
-0.0515747	
-0.0918579	
-0.0946045	
-0.0427246	
-0.0158691	
-0.0140381	
-0.0454712	
-0.0552368	
-0.0543213	
-0.0534058	
-0.00366211	
0.000305176	
-0.0216675	
-0.0314331	
-0.0357056	
-0.0466919	
-0.0750732	
-0.126038	
-0.0799561	
-0.0415039	
-0.0125122	
-0.0262451	
-0.00488281	
0.00335693	
-0.0305176	
-0.0601196	
-0.0265503	
-0.0427246	
-0.0393677	
-0.0494385	
-0.0283813	
-0.0473022	
-0.0714111	
-0.0473022	
-0.0378418	
-0.0201416	
-0.00305176	
0.0161743	
-0.00488281	
-0.0354004	
-0.0357056	
-0.0497437	
0.00549316	
-0.03479	
-0.0579834	
-0.0665283	
-0.0442505	
-0.0521851	
-0.0588989	
-0.0198364	
0.00213623	
-0.0247192	
-0.0637817	
-0.0244141	
0.00396729	
-0.00671387	
-0.027771	
-0.0210571	
-0.0256348	
-0.0234985	
-0.00946045	
-0.0350952	
-0.0622559	
-0.000610352	
-0.0576782	
-0.0726318	
-0.0326538	
-0.0448608	
-0.0244141	
-0.0256348	
-0.0604248	
-0.057373	
-0.0338745	
-0.0259399	
-0.0323486	
-0.00610352	
-0.0299072	
-0.0622559	
-0.0259399	
-0.0463867	
-0.0289917	
-0.0326538	
-0.0354004	
-0.0402832	
-0.0491333	
-0.039978	
-0.0405884	
-0.00610352	
-0.00854492	
-0.0222778	
-0.0189209	
-0.000915527	
0.0158691	
0.010376	
-0.0323486	
-0.0183105	
0.0183105	
0.00732422	
-0.0552368	
-0.0799561	
-0.0283813	
0.00427246	
-0.0335693	
-0.0668335	
0.0253296	
0.010376	
-0.0250244	
-0.0259399	
-0.00915527	
-0.0299072	
-0.0683594	
-0.0488281	
-0.0531006	
-0.0668335	
-0.00274658	
0.0341797	
0.0299072	
-0.00610352	
0.00518799	
-0.0170898	
-0.00488281	
-0.0112915	
-0.0088501	
-0.00549316	
-0.0204468	
-0.0482178	
-0.0408936	
-0.0427246	
-0.0167847	
-0.00305176	
-0.0115967	
-0.00366211	
-0.00518799	
-0.00823975	
-0.0238037	
-0.0253296	
-0.0256348	
-0.0363159	
-0.00549316	
0.0128174	
0.0238037	
0.0119019	
0.0259399	
0.00701904	
0.00305176	
-0.0463867	
-0.0204468	
0.00457764	
0.00976563	
0.00976563	
0.0012207	
0.0149536	
-0.00762939	
-0.0134277	
-0.0216675	
-0.020752	
-0.00274658	
-0.000610352	
-0.0137329	
0.0189209	
0.0012207	
-0.0448608	
-0.0601196	
-0.0640869	
-0.0601196	
-0.0588989	
-0.0564575	
-0.0817871	
-0.0289917	
0.0100708	
-0.00457764	
-0.0305176	
-0.062561	
-0.0772095	
-0.0415039	
-0.0112915	
-0.0183105	
-0.03479	
-0.0811768	
-0.0891113	
-0.0891113	
-0.0213623	
-0.020752	
-0.0646973	
-0.0634766	
0.0012207	
-0.00427246	
-0.0454712	
-0.0634766	
0.0344849	
-0.0341797	
-0.0598145	
-0.0592041	
-0.083313	
-0.0772095	
-0.0640869	
-0.0442505	
-0.0408936	
-0.06073	
-0.0430298	
-0.0286865	
-0.0662231	
-0.083313	
-0.062561	
-0.0714111	
-0.0274658	
-0.0250244	
-0.0601196	
-0.0909424	
-0.0857544	
-0.0558472	
-0.0146484	
-0.0402832	
-0.0720215	
-0.0561523	
-0.045166	
-0.0604248	
-0.0595093	
-0.055542	
-0.0357056	
-0.0341797	
-0.0317383	
-0.0296021	
-0.0363159	
-0.0341797	
-0.00701904	
-0.0259399	
-0.00579834	
-0.0622559	
-0.0653076	
-0.0524902	
-0.0732422	
-0.062561	
0.0369263	
0.0393677	
0.0390625	
0.0125122	
0.0219727	
0.0546265	
0.0512695	
0.0836182	
0.117798	
0.115967	
0.10498	
0.131226	
0.173035	
0.172119	
0.184631	
0.220947	
0.227966	
0.224915	
0.227661	
0.265808	
0.32135	
0.317993	
0.327454	
0.363464	
0.322571	
0.253906	
0.215149	
0.211792	
0.221558	
0.187378	
0.187988	
0.150452	
0.181274	
0.187073	
0.159607	
0.153809	
0.06073	
-0.0228882	
0.0170898	
0.0167847	
-0.0140381	
-0.0927734	
-0.187988	
-0.265503	
-0.300903	
-0.293884	
-0.249329	
-0.255737	
-0.289917	
-0.301514	
-0.222778	
-0.209351	
-0.236511	
-0.205688	
-0.19104	
-0.145264	
-0.153198	
-0.162659	
-0.172729	
-0.146179	
-0.13031	
-0.150146	
-0.142822	
-0.135498	
-0.111389	
-0.143738	
-0.098877	
-0.0750732	
-0.0640869	
-0.0170898	
-0.0631714	
-0.0708008	
-0.0469971	
-0.0198364	
-0.0216675	
-0.0314331	
-0.057373	
-0.0497437	
0.00793457	
0.00274658	
-0.0314331	
-0.0750732	
-0.0872803	
-0.0662231	
-0.0561523	
-0.0689697	
-0.062561	
-0.0109863	
0.010376	
-0.010376	
-0.0408936	
-0.0878906	
-0.0442505	
-0.0567627	
-0.0610352	
-0.0515747	
-0.0268555	
-0.0369263	
-0.0488281	
-0.0088501	
-0.0198364	
-0.0192261	
-0.0500488	
-0.057373	
-0.0234985	
-0.0469971	
0.00854492	
-0.020752	
-0.00732422	
0.0335693	
-0.0402832	
-0.0274658	
-0.0454712	
-0.0350952	
-0.0387573	
-0.0177002	
-0.0338745	
0.0131226	
-0.0192261	
-0.00427246	
-0.0128174	
-0.0167847	
-0.00701904	
-0.00732422	
-0.00976563	
-0.0143433	
-0.0170898	
-0.0469971	
-0.0506592	
-0.00488281	
-0.0326538	
-0.0265503	
-0.000915527	
0.0106812	
-0.0366211	
-0.027771	
-0.0332642	
-0.0454712	
-0.0595093	
-0.0323486	
-0.00640869	
0.0357056	
0.0112915	
-0.017395	
-0.0247192	
-0.0286865	
-0.0360107	
-0.0521851	
-0.0149536	
0.0387573	
0.0274658	
-0.00946045	
-0.0228882	
0.00793457	
0.010376	
-0.0112915	
-0.0323486	
-0.0354004	
-0.0274658	
-0.0216675	
0.00183105	
-0.000610352	
-0.0378418	
-0.043335	
-0.0317383	
-0.0393677	
0.000610352	
0.00610352	
0.0170898	
0.00793457	
0.022583	
0.0323486	
-0.00732422	
-0.0247192	
-0.0289917	
-0.0216675	
-0.0106812	
-0.0198364	
-0.0201416	
-0.0357056	
-0.039978	
-0.0170898	
0.0408936	
0.00793457	
-0.00640869	
0.0134277	
0.00274658	
0.0247192	
0.0491333	
0.0161743	
-0.00762939	
0.03479	
0.015564	
0.0195313	
0.0482178	
0.00946045	
-0.0360107	
-0.0161743	
0.00152588	
0.0164795	
0.0469971	
0.0241089	
0.000915527	
-0.00854492	
-0.00213623	
-0.00610352	
0.0131226	
0.0222778	
0.0335693	
0.0357056	
0.00152588	
0.0396729	
0.0320435	
0.0256348	
0.0146484	
0.032959	
0.0131226	
0.00244141	
0.0466919	
0.0582886	
0.00915527	
0.0109863	
0.0170898	
0.0588989	
0.0909424	
0.0415039	
0.0552368	
0.00579834	
0.00793457	
0.0418091	
0.0808716	
0.133362	
0.0958252	
0.0158691	
-0.0222778	
0.00274658	
0.0482178	
0.071106	
0.0878906	
0.0942993	
0.0595093	
0.0320435	
0.0198364	
0.0302124	
0.0643921	
0.0723267	
0.055542	
0.0814819	
0.140686	
0.0860596	
0.0134277	
0.0338745	
0.0805664	
0.088501	
0.0357056	
0.0802612	
0.0802612	
0.057373	
0.0115967	
0.00823975	
-0.00488281	
0.0744629	
0.0683594	
0.0369263	
0.0418091	
0.03479	
0.072937	
0.114136	
0.045166	
0.0311279	
0.0344849	
0.043335	
0.0640869	
0.0653076	
0.0549316	
0.0634766	
0.0799561	
0.0726318	
0.0610352	
