-0.146179	0.378723	
-0.147095	0.379333	
-0.1474	0.380554	
-0.1474	0.38147	
-0.147095	0.382385	
-0.146179	0.383606	
-0.145569	0.384827	
-0.144653	0.385742	
-0.143738	0.386353	
-0.142517	0.387268	
-0.140991	0.387573	
-0.13916	0.387878	
-0.137024	0.387878	
-0.134888	0.387878	
-0.132751	0.387573	
-0.13092	0.387268	
-0.1297	0.386658	
-0.129089	0.386353	
-0.128784	0.385742	
-0.129089	0.385132	
-0.1297	0.384521	
-0.130615	0.384216	
-0.131226	0.383606	
-0.131836	0.383301	
-0.132751	0.382996	
-0.133057	0.38269	
-0.133667	0.382385	
-0.133972	0.382385	
-0.134583	0.38208	
-0.135498	0.38208	
-0.136108	0.38208	
-0.136719	0.38208	
-0.137024	0.382385	
-0.137024	0.382385	
-0.136719	0.382385	
-0.136414	0.38269	
-0.135498	0.382996	
-0.134888	0.383301	
-0.134277	0.383911	
-0.133667	0.384521	
-0.133057	0.385132	
-0.132446	0.385742	
-0.131531	0.386353	
-0.13092	0.386963	
-0.130005	0.387268	
-0.129089	0.387878	
-0.128479	0.388184	
-0.127869	0.388489	
-0.127258	0.388794	
-0.127258	0.389099	
-0.127258	0.389404	
-0.127563	0.389404	
-0.127869	0.389709	
-0.128784	0.389404	
-0.129395	0.389099	
-0.13031	0.388489	
-0.130615	0.387878	
-0.130615	0.386963	
-0.13031	0.386353	
-0.129395	0.385437	
-0.128174	0.384827	
-0.126648	0.384216	
-0.124817	0.384216	
-0.123596	0.384216	
-0.122375	0.383911	
-0.12146	0.383911	
-0.120239	0.383606	
-0.119019	0.383301	
-0.117493	0.38269	
-0.115967	0.382385	
-0.114441	0.381775	
-0.112915	0.381165	
-0.112305	0.380249	
-0.112	0.379639	
-0.112305	0.378418	
-0.11261	0.377502	
-0.11322	0.376282	
-0.113831	0.374756	
-0.114441	0.37323	
-0.114746	0.371704	
-0.115051	0.369873	
-0.115051	0.368042	
-0.114746	0.366516	
-0.114136	0.364685	
-0.113525	0.363464	
-0.11261	0.361938	
-0.112	0.361023	
-0.111084	0.360107	
-0.110779	0.359497	
-0.110474	0.359192	
-0.110168	0.359192	
-0.110474	0.359497	
-0.111084	0.360413	
-0.112305	0.361328	
-0.113831	0.362244	
-0.115662	0.362854	
-0.117493	0.36377	
-0.119629	0.364685	
-0.121765	0.365601	
-0.122986	0.366821	
-0.123901	0.368042	
-0.123596	0.369263	
-0.122986	0.370178	
-0.12146	0.371094	
-0.119324	0.371704	
-0.116577	0.372314	
-0.113525	0.372009	
-0.109863	0.371704	
-0.105591	0.371399	
-0.100708	0.370789	
-0.0949097	0.370178	
-0.088501	0.369568	
-0.0814819	0.368958	
-0.0738525	0.368347	
-0.0662231	0.367737	
-0.0582886	0.367126	
-0.0506592	0.366211	
-0.043335	0.365601	
-0.0363159	0.36499	
-0.0292969	0.364685	
-0.022583	0.36499	
-0.0152588	0.365601	
-0.00793457	0.366211	
-0.000305176	0.367126	
0.00732422	0.368042	
0.0149536	0.368958	
0.0228882	0.370178	
0.0311279	0.371094	
0.0390625	0.372314	
0.0476074	0.373535	
0.0561523	0.374756	
0.0646973	0.375977	
0.072937	0.377197	
0.0811768	0.378723	
0.088501	0.380554	
0.09552	0.38208	
0.101929	0.383911	
0.107422	0.385437	
0.112305	0.386963	
0.116272	0.388184	
0.119629	0.389404	
0.12207	0.390625	
0.124207	0.391541	
0.126038	0.392151	
0.127563	0.392761	
0.128479	0.393066	
0.129089	0.393066	
0.129089	0.392761	
0.128784	0.392456	
0.128174	0.391541	
0.127563	0.390625	
0.126953	0.389404	
0.126648	0.387878	
0.126343	0.386353	
0.125732	0.384827	
0.125427	0.383301	
0.124512	0.38208	
0.123901	0.380859	
0.122986	0.379944	
0.12207	0.379333	
0.121155	0.379028	
0.120239	0.379333	
0.119019	0.379333	
0.118103	0.379639	
0.116882	0.379944	
0.115967	0.379944	
0.115356	0.379639	
0.115051	0.379028	
0.115051	0.378113	
0.115356	0.377197	
0.116272	0.375977	
0.117798	0.374146	
0.119629	0.372314	
0.121765	0.370178	
0.124207	0.367432	
0.126953	0.364685	
0.129395	0.361633	
0.132141	0.358582	
0.134888	0.35553	
0.137329	0.352478	
0.139465	0.349426	
0.141296	0.346985	
0.142822	0.344543	
0.144348	0.342407	
0.145264	0.340576	
0.146484	0.33905	
0.147095	0.33783	
0.147705	0.336914	
0.14801	0.336304	
0.147705	0.335693	
0.14679	0.335693	
0.145569	0.335693	
0.144043	0.335999	
0.142212	0.336609	
0.140076	0.336914	
0.138245	0.33783	
0.136719	0.33844	
0.135193	0.339355	
0.133972	0.340271	
0.132446	0.341492	
0.131226	0.342712	
0.130005	0.343933	
0.129089	0.345154	
0.128479	0.346375	
0.128174	0.34729	
0.128174	0.348206	
0.128784	0.348816	
0.1297	0.349121	
0.131226	0.348816	
0.133057	0.348511	
0.135193	0.3479	
0.137634	0.346985	
0.140381	0.346069	
0.143127	0.344849	
0.145874	0.343628	
0.148315	0.342407	
0.150757	0.341187	
0.153198	0.339966	
0.155029	0.33844	
0.156555	0.337219	
0.157776	0.335693	
0.158691	0.334778	
0.159302	0.333862	
0.159607	0.333557	
0.159912	0.333557	
0.160217	0.334167	
0.160522	0.335083	
0.160828	0.336304	
0.160828	0.337524	
0.160828	0.338745	
0.160217	0.339661	
0.158997	0.340576	
0.157776	0.340881	
0.156555	0.341187	
0.15564	0.341187	
0.155334	0.340881	
0.155029	0.340271	
0.155029	0.339355	
0.154724	0.33783	
0.154419	0.336304	
0.153809	0.334167	
0.152893	0.332031	
0.151978	0.329285	
0.151062	0.326843	
0.150452	0.324402	
0.149841	0.32196	
0.149231	0.320129	
0.148621	0.318298	
0.14801	0.317078	
0.147095	0.316162	
0.146179	0.315857	
0.145264	0.316162	
0.144653	0.316772	
0.144348	0.318298	
0.144043	0.320435	
0.143738	0.322876	
0.143738	0.325928	
0.143738	0.328979	
0.144043	0.332336	
0.144653	0.335388	
0.145264	0.338135	
0.146484	0.340881	
0.148315	0.343018	
0.150757	0.345154	
0.153198	0.346985	
0.155945	0.348206	
0.158081	0.349121	
0.159607	0.349426	
0.161133	0.349121	
0.162354	0.348511	
0.163574	0.34729	
0.16449	0.345764	
0.165405	0.343628	
0.166321	0.341492	
0.166931	0.339355	
0.167236	0.337524	
0.167542	0.335388	
0.167236	0.333557	
0.166626	0.332336	
0.16571	0.331421	
0.163879	0.331421	
0.162048	0.331726	
0.159607	0.332336	
0.157166	0.333252	
0.154724	0.334473	
0.152283	0.335388	
0.149841	0.336609	
0.14801	0.337524	
0.146179	0.33844	
0.144348	0.339355	
0.142517	0.339966	
0.140991	0.340271	
0.139465	0.340271	
0.138245	0.340271	
0.137329	0.339966	
0.137024	0.339355	
0.137024	0.338745	
0.137634	0.338135	
0.138245	0.337219	
0.139465	0.336609	
0.140381	0.335999	
0.141602	0.335693	
0.143127	0.335388	
0.144653	0.335693	
0.146179	0.336304	
0.1474	0.337219	
0.14801	0.338745	
0.148315	0.339966	
0.147705	0.341492	
0.14679	0.343018	
0.145569	0.344238	
0.144653	0.345459	
0.143738	0.346069	
0.142822	0.346375	
0.141907	0.34668	
0.141602	0.34668	
0.141296	0.346375	
0.141602	0.345459	
0.141602	0.344543	
0.142212	0.343018	
0.142517	0.341492	
0.143433	0.339966	
0.144043	0.338745	
0.144958	0.33783	
0.145874	0.336914	
0.147095	0.336609	
0.148621	0.336304	
0.150452	0.336304	
0.152283	0.336609	
0.154724	0.337219	
0.157471	0.33783	
0.159912	0.338745	
0.162048	0.339966	
0.163879	0.341187	
0.166016	0.343018	
0.168457	0.344543	
0.171509	0.346375	
0.175171	0.348206	
0.179443	0.350037	
0.183411	0.351257	
0.187378	0.352478	
0.19104	0.353088	
0.194702	0.353699	
0.198975	0.354004	
0.203552	0.354309	
0.209045	0.354919	
0.214539	0.355835	
0.220337	0.35675	
0.22583	0.357971	
0.231323	0.359192	
0.236816	0.360718	
0.242004	0.362244	
0.246887	0.36377	
0.25177	0.365601	
0.256042	0.367432	
0.26062	0.369568	
0.264587	0.371399	
0.268555	0.37384	
0.271606	0.375977	
0.274353	0.378418	
0.276794	0.381165	
0.27832	0.383911	
0.279236	0.386353	
0.279846	0.389099	
0.279846	0.391235	
0.279846	0.392761	
0.279846	0.393982	
0.279541	0.394897	
0.279541	0.395203	
0.279846	0.395203	
0.280457	0.394897	
0.281372	0.394592	
0.282898	0.393677	
0.284424	0.392761	
0.28595	0.391235	
0.287476	0.389709	
0.288696	0.387878	
0.289612	0.386047	
0.290527	0.384216	
0.290833	0.382385	
0.291443	0.380554	
0.291443	0.378723	
0.291138	0.377502	
0.290527	0.376282	
0.289307	0.375366	
0.288391	0.375061	
0.287476	0.375061	
0.286865	0.375366	
0.286255	0.376282	
0.28595	0.377808	
0.285339	0.379333	
0.285034	0.380859	
0.285034	0.382385	
0.285339	0.383911	
0.286255	0.384827	
0.287476	0.385437	
0.289307	0.385742	
0.291138	0.385742	
0.292969	0.385742	
0.2948	0.385132	
0.296326	0.384521	
0.297241	0.383911	
0.297852	0.382996	
0.298157	0.381775	
0.298157	0.380859	
0.297852	0.379944	
0.297546	0.379639	
0.296936	0.379333	
0.296631	0.379944	
0.296326	0.381165	
0.295715	0.382996	
0.29541	0.385132	
0.294495	0.387878	
0.292969	0.39093	
0.291443	0.394592	
0.289612	0.39856	
0.287476	0.403442	
0.285339	0.40863	
0.283508	0.414124	
0.281677	0.419922	
0.279846	0.42572	
0.278015	0.431519	
0.275574	0.437927	
0.273438	0.444641	
0.271301	0.45166	
0.270081	0.459595	
0.26947	0.467529	
0.269775	0.475464	
0.270081	0.483704	
0.270996	0.491943	
0.271912	0.500488	
0.273438	0.509644	
0.274658	0.519409	
0.276489	0.52948	
0.278015	0.539856	
0.278931	0.550842	
0.279846	0.561829	
0.280151	0.57312	
0.279846	0.584717	
0.279236	0.596619	
0.27832	0.608215	
0.2771	0.620422	
0.275879	0.632324	
0.274353	0.644226	
0.272827	0.655823	
0.271301	0.667725	
0.270081	0.679321	
0.26947	0.690918	
0.26886	0.702209	
0.26886	0.713501	
0.269775	0.724792	
0.271301	0.735779	
0.274353	0.74646	
0.278015	0.756226	
0.282593	0.765381	
0.287476	0.773315	
0.292358	0.78064	
0.297546	0.786743	
0.302124	0.791626	
0.306091	0.795288	
0.309753	0.798035	
0.3125	0.799255	
0.314941	0.799866	
0.316772	0.79895	
0.318298	0.797424	
0.319214	0.794983	
0.319519	0.791321	
0.319214	0.787048	
0.318298	0.78186	
0.317383	0.776367	
0.316467	0.769958	
0.315552	0.762939	
0.314636	0.75592	
0.313416	0.748901	
0.3125	0.741577	
0.31189	0.734863	
0.311584	0.728455	
0.311279	0.722351	
0.310974	0.716553	
0.310974	0.711365	
0.310669	0.706482	
0.310364	0.701904	
0.310364	0.697632	
0.310364	0.693359	
0.310974	0.689087	
0.311584	0.684814	
0.3125	0.679932	
0.313721	0.675049	
0.314636	0.669556	
0.315857	0.664063	
0.317078	0.657959	
0.318604	0.651855	
0.320129	0.645447	
0.322266	0.638733	
0.324707	0.631714	
0.327454	0.62439	
0.330505	0.617065	
0.333557	0.609436	
0.336304	0.601807	
0.339355	0.594482	
0.341797	0.587158	
0.344238	0.580444	
0.346375	0.57373	
0.348206	0.567627	
0.349426	0.561829	
0.350647	0.556641	
0.351257	0.551453	
0.351563	0.546875	
0.351257	0.542297	
0.350037	0.538025	
0.348816	0.534058	
0.346985	0.530396	
0.344849	0.526428	
0.342712	0.522766	
0.340271	0.519104	
0.337524	0.515747	
0.334778	0.512085	
0.332031	0.508728	
0.32959	0.505066	
0.327148	0.501404	
0.325317	0.497742	
0.324097	0.494385	
0.322876	0.490723	
0.32196	0.487061	
0.32135	0.483704	
0.321045	0.480042	
0.321045	0.476379	
0.321655	0.472717	
0.322571	0.46936	
0.323792	0.465698	
0.325623	0.461731	
0.327454	0.458069	
0.329285	0.454407	
0.331421	0.45105	
0.333557	0.447693	
0.335388	0.444641	
0.337524	0.441895	
0.339355	0.439148	
0.340881	0.436707	
0.342407	0.434265	
0.343323	0.431824	
0.344238	0.429688	
0.344543	0.427856	
0.344849	0.42572	
0.344543	0.424194	
0.344238	0.422668	
0.343628	0.421143	
0.343018	0.419922	
0.342712	0.418701	
0.342102	0.41748	
0.341492	0.41626	
0.340881	0.415344	
0.339966	0.414429	
0.33844	0.413818	
0.336914	0.413208	
0.335388	0.412598	
0.333557	0.411987	
0.332031	0.411377	
0.331116	0.411072	
0.330811	0.410461	
0.330811	0.410156	
0.331421	0.409546	
0.331726	0.408936	
0.332336	0.40802	
0.332947	0.407104	
0.333557	0.406189	
0.334167	0.404968	
0.335083	0.403442	
0.336304	0.401611	
0.337524	0.39978	
0.33905	0.397949	
0.340271	0.396118	
0.341492	0.393982	
0.342407	0.392151	
0.342712	0.390625	
0.342407	0.389099	
0.341797	0.387573	
0.340576	0.386353	
0.33905	0.385132	
0.337524	0.383911	
0.335999	0.382996	
0.334473	0.38208	
0.333252	0.381165	
0.332336	0.380554	
0.331726	0.379944	
0.331726	0.379028	
0.332031	0.378418	
0.332642	0.377808	
0.334167	0.376892	
0.335999	0.376282	
0.338745	0.375366	
0.341492	0.374756	
0.344238	0.374146	
0.34729	0.37384	
0.350037	0.37384	
0.352478	0.374146	
0.354309	0.374451	
0.35553	0.375061	
0.355835	0.375671	
0.355835	0.375977	
0.35553	0.376587	
0.354614	0.377197	
0.353699	0.377502	
0.352478	0.378113	
0.351257	0.378418	
0.350037	0.378418	
0.348511	0.378113	
0.347595	0.377808	
0.34668	0.376892	
0.346375	0.375671	
0.346375	0.374451	
0.34668	0.37262	
0.3479	0.370483	
0.349121	0.368347	
0.350647	0.365906	
0.352173	0.363464	
0.353699	0.361328	
0.354614	0.359802	
0.35553	0.358276	
0.355835	0.357361	
0.35553	0.35675	
0.354919	0.35614	
0.353699	0.35614	
0.352173	0.35614	
0.350342	0.356445	
0.348206	0.35675	
0.346069	0.357361	
0.344238	0.357971	
0.342712	0.358582	
0.341492	0.359192	
0.340881	0.359497	
0.340271	0.359802	
0.339966	0.359802	
0.340271	0.359802	
0.340881	0.359497	
0.341797	0.358887	
0.342712	0.358276	
0.343933	0.357361	
0.344543	0.356445	
0.345154	0.355835	
0.345459	0.355225	
0.345459	0.354614	
0.345154	0.354309	
0.344543	0.354004	
0.343628	0.353699	
0.342712	0.353394	
0.341492	0.353394	
0.340576	0.353394	
0.339966	0.353699	
0.339355	0.354309	
0.339355	0.354919	
0.339661	0.35553	
0.340271	0.35614	
0.341492	0.356445	
0.343018	0.35675	
0.344849	0.357056	
0.346985	0.357056	
0.348816	0.357056	
0.350952	0.35675	
0.352783	0.356445	
0.354614	0.35614	
0.35614	0.355835	
0.357361	0.355225	
0.357971	0.354919	
0.358582	0.354309	
0.357971	0.354004	
0.357056	0.353699	
0.355225	0.353394	
0.352478	0.353394	
0.349426	0.353699	
0.346069	0.354309	
0.343018	0.354919	
0.339966	0.35553	
0.337524	0.356445	
0.335388	0.357666	
0.334167	0.358582	
0.333862	0.359802	
0.333862	0.360718	
0.334167	0.361633	
0.335388	0.362549	
0.336609	0.363464	
0.33844	0.36377	
0.340881	0.36438	
0.343628	0.36438	
0.346985	0.364075	
0.350342	0.363464	
0.353699	0.362854	
0.356445	0.361938	
0.358582	0.360718	
0.359802	0.359802	
0.360718	0.358887	
0.360718	0.357666	
0.360107	0.35675	
0.358887	0.355835	
0.357361	0.355225	
0.355225	0.354614	
0.352783	0.354309	
0.350037	0.354004	
0.346985	0.353699	
0.343628	0.353699	
0.340576	0.353699	
0.337524	0.353699	
0.334778	0.354004	
0.332336	0.354309	
0.330811	0.354614	
0.3302	0.354919	
0.3302	0.355225	
0.330811	0.355225	
0.332031	0.35553	
0.333557	0.355835	
0.335083	0.355835	
0.336609	0.356445	
0.33844	0.357056	
0.339966	0.357666	
0.341492	0.357971	
0.343018	0.358276	
0.344238	0.358582	
0.345459	0.358887	
0.34668	0.358887	
0.3479	0.358887	
0.348816	0.358887	
0.349426	0.358887	
0.349731	0.358887	
0.350037	0.358582	
0.349731	0.358582	
0.348816	0.358276	
0.347595	0.357971	
0.346069	0.357666	
0.344543	0.357361	
0.342712	0.357056	
0.341187	0.357056	
0.339661	0.35675	
0.338745	0.35675	
0.33783	0.35675	
0.337219	0.357056	
0.336914	0.357361	
0.336609	0.357666	
0.336609	0.357971	
0.337219	0.358276	
0.33783	0.358887	
0.338745	0.359192	
0.339966	0.359192	
0.341492	0.359497	
0.343323	0.359497	
0.345154	0.359497	
0.346985	0.359497	
0.348816	0.359497	
0.350342	0.359497	
0.351257	0.359802	
0.352173	0.360107	
0.352173	0.360413	
0.352173	0.360718	
0.351868	0.361328	
0.351563	0.361633	
0.350647	0.362549	
0.349731	0.363464	
0.348511	0.36438	
0.34729	0.365601	
0.346375	0.366516	
0.345154	0.367126	
0.344238	0.367737	
0.343628	0.368347	
0.343018	0.368347	
0.342712	0.368347	
0.342712	0.368042	
0.343018	0.367737	
0.343628	0.366821	
0.344238	0.366211	
0.345154	0.365295	
0.346069	0.364075	
0.34668	0.362854	
0.34729	0.361633	
0.3479	0.360107	
0.348816	0.358887	
0.349731	0.357361	
0.350647	0.356445	
0.351257	0.35553	
0.352173	0.354919	
0.352478	0.354309	
0.352783	0.354004	
0.352783	0.354004	
0.352478	0.354309	
0.351868	0.354614	
0.351257	0.354919	
0.350647	0.35553	
0.350037	0.356445	
0.349426	0.357056	
0.348206	0.357971	
0.346985	0.358887	
0.345764	0.360107	
0.344238	0.360718	
0.342712	0.361633	
0.341492	0.362244	
0.340271	0.362549	
0.339661	0.363159	
0.33905	0.363159	
0.33905	0.363464	
0.339355	0.363159	
0.339661	0.362854	
0.340271	0.362549	
0.340881	0.361938	
0.341492	0.361023	
0.342407	0.360107	
0.343018	0.359192	
0.343628	0.358276	
0.344238	0.357361	
0.345154	0.356445	
0.345764	0.35553	
0.34668	0.354614	
0.34729	0.353699	
0.347595	0.352783	
0.347595	0.352173	
0.34729	0.351563	
0.34668	0.350952	
0.346375	0.350647	
0.346069	0.350342	
0.346069	0.350342	
0.346069	0.350647	
0.346375	0.350952	
0.34668	0.350952	
0.34729	0.351257	
0.348206	0.351563	
0.349121	0.351563	
0.350342	0.351563	
0.351257	0.351563	
0.352173	0.351868	
0.352478	0.351868	
0.352783	0.351868	
0.353088	0.351868	
0.352783	0.351868	
0.352783	0.351868	
0.352478	0.351868	
0.351868	0.351868	
0.351257	0.351563	
0.350342	0.351257	
0.349426	0.350952	
0.3479	0.350342	
0.34668	0.349426	
0.345154	0.348511	
0.343933	0.34729	
0.342712	0.346375	
0.342102	0.345154	
0.341797	0.343933	
0.342102	0.342712	
0.342712	0.341492	
0.343323	0.340271	
0.344238	0.339355	
0.344849	0.338135	
0.345764	0.336914	
0.346375	0.335999	
0.34668	0.335388	
0.346985	0.335083	
0.34729	0.335083	
0.34729	0.335083	
0.346985	0.335693	
0.34668	0.336609	
0.34668	0.337524	
0.346375	0.338745	
0.346069	0.340271	
0.345764	0.341492	
0.345154	0.342712	
0.344543	0.344238	
0.344238	0.345459	
0.343933	0.346375	
0.343628	0.34729	
0.343628	0.3479	
0.343933	0.348511	
0.344238	0.348816	
0.344543	0.348816	
0.344849	0.348816	
0.344849	0.348206	
0.344849	0.3479	
0.344543	0.34729	
0.344238	0.34668	
0.343323	0.346069	
0.341797	0.345459	
0.340271	0.345154	
0.338135	0.344849	
0.335999	0.344849	
0.333557	0.344849	
0.331421	0.344849	
0.328979	0.345459	
0.326843	0.345764	
0.325012	0.34668	
0.323181	0.34729	
0.321655	0.348206	
0.320129	0.349121	
0.319214	0.350037	
0.318298	0.350952	
0.317688	0.351868	
0.317383	0.352478	
0.317383	0.353088	
0.317993	0.353088	
0.318909	0.353088	
0.320129	0.352783	
0.32196	0.352478	
0.323792	0.351868	
0.325928	0.350952	
0.327759	0.350037	
0.329285	0.349121	
0.331116	0.348206	
0.332642	0.346985	
0.334167	0.345764	
0.335693	0.344849	
0.337524	0.343628	
0.338745	0.343018	
0.339966	0.342407	
0.340881	0.341797	
0.341187	0.341797	
0.340881	0.341797	
0.340576	0.341797	
0.339966	0.342102	
0.33905	0.342712	
0.338135	0.343628	
0.336914	0.344543	
0.335999	0.345764	
0.335083	0.346985	
0.334167	0.348511	
0.333252	0.349426	
0.332642	0.350342	
0.332031	0.350952	
0.332031	0.351563	
0.332336	0.351563	
0.333252	0.351563	
0.334778	0.351257	
0.336609	0.350952	
0.338745	0.350342	
0.340881	0.349426	
0.343323	0.348511	
0.346069	0.347595	
0.348816	0.346375	
0.351868	0.345154	
0.354919	0.343933	
0.357971	0.343018	
0.360718	0.342102	
0.363159	0.341492	
0.36499	0.341492	
0.365906	0.341492	
0.366211	0.341797	
0.365601	0.342712	
0.36438	0.343933	
0.362244	0.345459	
0.359497	0.346985	
0.35614	0.349121	
0.352478	0.351563	
0.348206	0.354004	
0.343933	0.357056	
0.33905	0.359802	
0.334167	0.362854	
0.329285	0.366211	
0.324402	0.369263	
0.319519	0.37262	
0.314331	0.375977	
0.309448	0.379639	
0.304565	0.382996	
0.299683	0.386658	
0.2948	0.390015	
0.290527	0.393677	
0.286255	0.397034	
0.282593	0.400391	
0.278625	0.403442	
0.275269	0.406189	
0.271606	0.40863	
0.267944	0.410767	
0.264282	0.412292	
0.26062	0.413208	
0.257263	0.413818	
0.253906	0.413818	
0.250549	0.412903	
0.247192	0.411377	
0.244141	0.409241	
0.241089	0.406189	
0.238342	0.402527	
0.235596	0.397949	
0.232849	0.393066	
0.230408	0.387573	
0.227966	0.38147	
0.22522	0.374756	
0.222778	0.367737	
0.220337	0.360413	
0.217896	0.352783	
0.215149	0.345154	
0.212708	0.337524	
0.210266	0.32959	
0.207825	0.32196	
0.205383	0.314331	
0.203247	0.306702	
0.201111	0.299377	
0.198975	0.292053	
0.197144	0.285034	
0.195313	0.278015	
0.193481	0.271301	
0.191956	0.264893	
0.189819	0.258484	
0.187988	0.252075	
0.185852	0.245667	
0.183105	0.239563	
0.180664	0.233459	
0.177612	0.227661	
0.174255	0.222168	
0.170898	0.216675	
0.166931	0.211487	
0.162964	0.206299	
0.158386	0.201416	
0.153809	0.196838	
0.148621	0.192261	
0.143433	0.187988	
0.137634	0.183716	
0.132141	0.180054	
0.126648	0.176697	
0.121155	0.17395	
0.115662	0.171204	
0.110779	0.168762	
0.106812	0.166626	
0.103149	0.164185	
0.100098	0.161743	
0.0976563	0.158997	
0.0958252	0.155945	
0.0942993	0.152893	
0.0930786	0.149231	
0.0924683	0.145874	
0.0918579	0.141907	
0.0915527	0.137939	
0.0915527	0.133667	
0.0921631	0.129395	
0.0924683	0.125122	
0.0927734	0.120544	
0.0924683	0.116272	
0.0918579	0.112	
0.0906372	0.108032	
0.0891113	0.10437	
0.0872803	0.101318	
0.0845337	0.0985718	
0.0811768	0.0964355	
0.0772095	0.0946045	
0.072937	0.0933838	
0.0686646	0.0924683	
0.0646973	0.0918579	
0.0604248	0.0915527	
0.0564575	0.0915527	
0.0524902	0.0915527	
0.0488281	0.0918579	
0.045166	0.0918579	
0.0418091	0.0915527	
0.0384521	0.0909424	
0.0354004	0.090332	
0.0326538	0.0891113	
0.0302124	0.0875854	
0.0280762	0.0860596	
0.0259399	0.0845337	
0.0238037	0.0827026	
0.0213623	0.0811768	
0.0189209	0.0796509	
0.0158691	0.078125	
0.0128174	0.0765991	
0.00915527	0.0750732	
0.00518799	0.0738525	
0.0012207	0.0723267	
-0.00274658	0.0708008	
-0.00671387	0.0695801	
-0.0106812	0.0680542	
-0.0146484	0.0671387	
-0.0183105	0.065918	
-0.0219727	0.0650024	
-0.0253296	0.0640869	
-0.0280762	0.0628662	
-0.0305176	0.0619507	
-0.032959	0.0610352	
-0.03479	0.0601196	
-0.0366211	0.0588989	
-0.0384521	0.0579834	
-0.039978	0.0570679	
-0.0415039	0.0561523	
-0.0427246	0.0552368	
-0.0439453	0.0543213	
-0.045166	0.0534058	
-0.0466919	0.0524902	
-0.0482178	0.0518799	
-0.050354	0.0509644	
-0.0524902	0.050354	
-0.0552368	0.0494385	
-0.0579834	0.0488281	
-0.06073	0.0482178	
-0.0640869	0.0473022	
-0.0671387	0.0466919	
-0.0701904	0.0454712	
-0.072937	0.0445557	
-0.0756836	0.043335	
-0.078125	0.0424194	
-0.0805664	0.0411987	
-0.0830078	0.0402832	
-0.085144	0.0393677	
-0.0875854	0.0384521	
-0.0897217	0.0378418	
-0.0918579	0.0372314	
-0.0942993	0.0366211	
-0.0964355	0.0363159	
-0.0985718	0.0360107	
-0.101013	0.0357056	
-0.103455	0.0354004	
-0.106201	0.0354004	
-0.109558	0.0354004	
-0.113525	0.0354004	
-0.117188	0.0354004	
-0.121155	0.0354004	
-0.124817	0.0350952	
-0.127869	0.03479	
-0.13031	0.03479	
-0.132446	0.0344849	
-0.134583	0.0344849	
-0.136719	0.0344849	
-0.13855	0.0341797	
-0.140076	0.0338745	
-0.140991	0.0338745	
-0.141296	0.0335693	
-0.141296	0.0335693	
-0.140686	0.0332642	
-0.139465	0.0335693	
-0.137939	0.0338745	
-0.136414	0.0341797	
-0.134888	0.0344849	
-0.133667	0.03479	
-0.132446	0.0350952	
-0.131836	0.0357056	
-0.131226	0.0360107	
-0.131226	0.0363159	
-0.131531	0.0363159	
-0.132141	0.0366211	
-0.132751	0.0366211	
-0.133667	0.0366211	
-0.134888	0.0366211	
-0.135803	0.0366211	
-0.137024	0.0369263	
-0.138245	0.0369263	
-0.139465	0.0369263	
-0.140991	0.0369263	
-0.142212	0.0369263	
-0.143433	0.0372314	
-0.144653	0.0372314	
-0.145264	0.0372314	
-0.145874	0.0375366	
-0.146484	0.0378418	
-0.14679	0.0384521	
-0.1474	0.0390625	
-0.147705	0.0396729	
-0.148315	0.0402832	
-0.148621	0.0408936	
-0.148926	0.0418091	
-0.148621	0.0424194	
-0.148621	0.0430298	
-0.148621	0.0436401	
-0.148621	0.0442505	
-0.148926	0.0442505	
-0.149231	0.0442505	
-0.149536	0.0436401	
-0.149841	0.0430298	
-0.149841	0.0424194	
-0.149841	0.0418091	
-0.149841	0.0408936	
-0.149536	0.0402832	
-0.149231	0.0396729	
-0.148926	0.0387573	
-0.149231	0.0378418	
-0.149231	0.0369263	
-0.149536	0.0357056	
-0.149536	0.0344849	
-0.149231	0.0332642	
-0.148926	0.0323486	
-0.148315	0.0317383	
-0.147705	0.0311279	
-0.147095	0.0308228	
-0.146484	0.0308228	
-0.145569	0.0308228	
-0.144958	0.0308228	
-0.144348	0.0308228	
-0.143738	0.0311279	
-0.142822	0.0311279	
-0.141296	0.0314331	
-0.140076	0.0317383	
-0.13855	0.0320435	
-0.137024	0.0320435	
-0.135803	0.0323486	
-0.134583	0.0326538	
-0.133667	0.0326538	
-0.132751	0.032959	
-0.132141	0.032959	
-0.131531	0.0326538	
-0.131531	0.0323486	
-0.131531	0.0317383	
-0.131531	0.0314331	
-0.131226	0.0308228	
-0.130615	0.0305176	
-0.13031	0.0302124	
-0.1297	0.0296021	
-0.1297	0.0289917	
-0.1297	0.0280762	
-0.130005	0.0268555	
-0.130005	0.0256348	
-0.1297	0.0247192	
-0.128784	0.0234985	
-0.127563	0.022583	
-0.125732	0.0216675	
-0.124207	0.020752	
-0.122681	0.0201416	
-0.12146	0.0192261	
-0.120544	0.0186157	
-0.119934	0.0180054	
-0.119324	0.0177002	
-0.118713	0.0170898	
-0.118103	0.0167847	
-0.117493	0.0167847	
-0.117188	0.0167847	
-0.117188	0.0167847	
-0.117493	0.017395	
-0.117798	0.0180054	
-0.118408	0.0186157	
-0.119019	0.0195313	
-0.119629	0.0201416	
-0.120239	0.020752	
-0.12085	0.0213623	
-0.12146	0.0219727	
-0.12207	0.022583	
-0.122681	0.0228882	
-0.122681	0.0228882	
-0.122681	0.0228882	
-0.122681	0.022583	
-0.122375	0.0219727	
-0.121765	0.0213623	
-0.12146	0.0204468	
-0.12085	0.0195313	
-0.120544	0.0186157	
-0.119629	0.0177002	
-0.119019	0.0167847	
-0.118103	0.0158691	
-0.116882	0.0149536	
-0.115662	0.0143433	
-0.114136	0.0134277	
-0.112915	0.0128174	
-0.111389	0.012207	
-0.110168	0.0115967	
-0.108643	0.0112915	
-0.107422	0.0112915	
-0.106506	0.0112915	
-0.105286	0.0115967	
-0.104675	0.012207	
-0.104065	0.0125122	
-0.104065	0.0128174	
-0.104065	0.0131226	
-0.10437	0.0134277	
-0.104675	0.0137329	
-0.105286	0.0140381	
-0.105896	0.0143433	
-0.106506	0.0146484	
-0.107117	0.0152588	
-0.107727	0.0158691	
-0.108032	0.0164795	
-0.108337	0.0167847	
-0.108337	0.0167847	
-0.108337	0.0164795	
-0.108337	0.0158691	
-0.108337	0.0152588	
-0.108032	0.0143433	
-0.107422	0.0134277	
-0.106506	0.012207	
-0.105896	0.0109863	
-0.10498	0.00976563	
-0.104065	0.00823975	
-0.103455	0.00671387	
-0.102844	0.00488281	
-0.102539	0.00335693	
-0.102539	0.00152588	
-0.102234	0	
-0.102234	-0.0012207	
-0.102234	-0.00244141	
-0.102234	-0.00305176	
-0.101929	-0.00335693	
-0.101929	-0.00335693	
-0.102234	-0.00305176	
-0.102539	-0.00244141	
-0.102844	-0.0012207	
-0.103149	0	
-0.10376	0.00152588	
-0.10437	0.00305176	
-0.105286	0.00427246	
-0.105896	0.00579834	
-0.107117	0.00701904	
-0.108337	0.00793457	
-0.109863	0.00915527	
-0.111694	0.00976563	
-0.113831	0.010376	
-0.115967	0.0109863	
-0.118408	0.0112915	
-0.120544	0.0119019	
-0.122986	0.012207	
-0.125427	0.0125122	
-0.127869	0.0128174	
-0.130615	0.0134277	
-0.133362	0.0137329	
-0.136414	0.0143433	
-0.139771	0.0149536	
-0.142822	0.0158691	
-0.145569	0.0170898	
-0.14801	0.0183105	
-0.150146	0.0198364	
-0.152283	0.0216675	
-0.154419	0.0234985	
-0.15625	0.0253296	
-0.158386	0.0271606	
-0.160522	0.0292969	
-0.162048	0.0317383	
-0.163879	0.0341797	
-0.1651	0.0366211	
-0.166321	0.0390625	
-0.167542	0.0415039	
-0.168762	0.0439453	
-0.169983	0.0463867	
-0.171509	0.0488281	
-0.172729	0.0512695	
-0.17395	0.0537109	
-0.174866	0.0564575	
-0.175781	0.0592041	
-0.176392	0.0622559	
-0.177002	0.0653076	
-0.177002	0.0683594	
-0.177002	0.0714111	
-0.177002	0.0738525	
-0.176697	0.0756836	
-0.176086	0.0772095	
-0.175171	0.078125	
-0.17395	0.0784302	
-0.172119	0.0784302	
-0.170288	0.078125	
-0.167847	0.0775146	
-0.165405	0.0765991	
-0.162659	0.0753784	
-0.159912	0.0741577	
-0.157166	0.072937	
-0.154419	0.0714111	
-0.152588	0.0695801	
-0.150757	0.0680542	
-0.149841	0.0662231	
-0.149231	0.0646973	
-0.149536	0.0631714	
-0.150146	0.0616455	
-0.151062	0.0604248	
-0.152588	0.0598145	
-0.154419	0.0592041	
-0.15625	0.0592041	
-0.158691	0.0592041	
-0.161133	0.0598145	
-0.163879	0.06073	
-0.166931	0.0619507	
-0.169983	0.0634766	
-0.17334	0.0650024	
-0.176392	0.0668335	
-0.179443	0.0689697	
-0.18219	0.0714111	
-0.184326	0.0738525	
-0.186157	0.0769043	
-0.187378	0.0799561	
-0.188293	0.083313	
-0.189209	0.0872803	
-0.189819	0.0912476	
-0.19043	0.0952148	
-0.19104	0.0997925	
-0.191956	0.10437	
-0.192871	0.108948	
-0.194397	0.113831	
-0.195618	0.118713	
-0.197144	0.123596	
-0.198364	0.128784	
-0.199585	0.133667	
-0.200806	0.13855	
-0.202026	0.143127	
-0.203552	0.1474	
-0.204773	0.151062	
-0.205688	0.154419	
-0.206604	0.157166	
-0.206909	0.159607	
-0.206909	0.161438	
-0.206299	0.162659	
-0.205383	0.163269	
-0.203857	0.163574	
-0.201721	0.163269	
-0.198975	0.162659	
-0.195923	0.161743	
-0.192871	0.160522	
-0.189514	0.158997	
-0.186462	0.157166	
-0.183716	0.155334	
-0.18158	0.153503	
-0.179443	0.151672	
-0.177917	0.150146	
-0.177002	0.148621	
-0.176392	0.147705	
-0.176697	0.14679	
-0.177917	0.146484	
-0.179749	0.145874	
-0.181885	0.145874	
-0.184631	0.145874	
-0.187683	0.146179	
-0.190735	0.146484	
-0.193481	0.147095	
-0.196228	0.147705	
-0.198364	0.148621	
-0.2005	0.149841	
-0.201721	0.151062	
-0.202332	0.152283	
-0.202332	0.153503	
-0.201721	0.154724	
-0.2005	0.155945	
-0.198975	0.15686	
-0.196838	0.158386	
-0.194702	0.159607	
-0.192261	0.160828	
-0.189819	0.162354	
-0.187988	0.163574	
-0.186157	0.16449	
-0.184937	0.165405	
-0.184021	0.16571	
-0.183411	0.166016	
-0.183105	0.166321	
-0.183105	0.166321	
-0.183716	0.166016	
-0.184326	0.166016	
-0.185242	0.16571	
-0.186462	0.16571	
-0.187683	0.16571	
-0.188904	0.16571	
-0.189819	0.16571	
-0.190735	0.165405	
-0.19104	0.165405	
-0.19104	0.1651	
-0.19104	0.1651	
-0.19043	0.164795	
-0.189514	0.16449	
-0.188599	0.164185	
-0.187378	0.163879	
-0.186157	0.163269	
-0.184631	0.162964	
-0.183411	0.162659	
-0.18219	0.162048	
-0.181274	0.161743	
-0.180359	0.161438	
-0.179749	0.161133	
-0.179443	0.160828	
-0.179138	0.160522	
-0.178833	0.160522	
-0.179138	0.160522	
-0.179749	0.160522	
-0.180664	0.160522	
-0.181885	0.160522	
-0.183105	0.160828	
-0.184021	0.161133	
-0.184937	0.161743	
-0.185852	0.162048	
-0.186157	0.162354	
-0.186462	0.162659	
-0.186157	0.162964	
-0.186157	0.163269	
-0.185547	0.163269	
-0.184937	0.163269	
-0.184021	0.162964	
-0.182495	0.162964	
-0.180664	0.162659	
-0.178528	0.162659	
-0.176086	0.162659	
-0.173645	0.162354	
-0.171204	0.162354	
-0.169067	0.162354	
-0.166931	0.162048	
-0.165405	0.161743	
-0.164185	0.161438	
-0.163269	0.161133	
-0.162354	0.160828	
-0.161743	0.160522	
-0.161438	0.159912	
-0.161133	0.158997	
-0.160828	0.158081	
-0.161438	0.157166	
-0.162048	0.15625	
-0.162964	0.155029	
-0.16449	0.154114	
-0.166016	0.152893	
-0.167542	0.151978	
-0.169067	0.151062	
-0.170288	0.150146	
-0.171204	0.149536	
-0.171814	0.148926	
-0.172119	0.148315	
-0.172424	0.148315	
-0.172424	0.14801	
-0.172119	0.14801	
-0.171814	0.148315	
-0.171204	0.148621	
-0.170288	0.148926	
-0.169067	0.149231	
-0.167847	0.149536	
-0.166016	0.150146	
-0.163879	0.150452	
-0.161743	0.150757	
-0.159607	0.151062	
-0.157776	0.151062	
-0.155945	0.151367	
-0.154419	0.151367	
-0.153503	0.151367	
-0.152588	0.151062	
-0.152283	0.150757	
-0.152283	0.150757	
-0.152283	0.150757	
-0.152283	0.150757	
-0.152283	0.150757	
-0.152588	0.151062	
-0.152893	0.151062	
-0.153198	0.151062	
-0.153503	0.151062	
-0.153503	0.151062	
-0.153198	0.150757	
-0.153198	0.150452	
-0.153503	0.150146	
-0.153503	0.149841	
-0.153809	0.149841	
-0.154114	0.149536	
-0.154114	0.149536	
-0.153809	0.149536	
-0.153198	0.149536	
-0.152588	0.149536	
-0.151978	0.149841	
-0.151367	0.150146	
-0.151062	0.150146	
-0.151062	0.150452	
-0.151367	0.150757	
-0.151672	0.150757	
-0.151978	0.151062	
-0.152588	0.151062	
-0.153198	0.151367	
-0.153503	0.151367	
-0.154114	0.151367	
-0.154724	0.151367	
-0.155029	0.151062	
-0.155334	0.151062	
-0.15564	0.151062	
-0.15564	0.150757	
-0.155945	0.150452	
-0.15625	0.150146	
-0.15686	0.149841	
-0.157471	0.149231	
-0.158081	0.148926	
-0.158691	0.148621	
-0.159302	0.14801	
-0.160217	0.147705	
-0.160828	0.147095	
-0.161438	0.146484	
-0.162048	0.145874	
-0.162964	0.145264	
-0.163879	0.144653	
-0.1651	0.144043	
-0.166016	0.143127	
-0.166931	0.142517	
-0.167542	0.141602	
-0.168152	0.140991	
-0.168457	0.140076	
-0.168762	0.13916	
-0.168762	0.138245	
-0.168762	0.137329	
-0.168152	0.136719	
-0.167236	0.136108	
-0.166016	0.135803	
-0.164795	0.135498	
-0.163574	0.135498	
-0.162048	0.135193	
-0.160828	0.135193	
-0.159607	0.135193	
-0.158386	0.135193	
-0.157166	0.135193	
-0.15625	0.135498	
-0.155334	0.135803	
-0.154419	0.135803	
-0.153809	0.136108	
-0.153198	0.136108	
-0.152893	0.136108	
-0.152893	0.135803	
-0.153198	0.135803	
-0.153809	0.135193	
-0.154724	0.134888	
-0.155334	0.134583	
-0.155334	0.134277	
-0.155334	0.133667	
-0.155029	0.133362	
-0.154419	0.132751	
-0.154114	0.132141	
-0.153503	0.131531	
-0.152893	0.130615	
-0.151978	0.1297	
-0.150452	0.129089	
-0.148621	0.128174	
-0.146484	0.127563	
-0.144348	0.127258	
-0.141602	0.126648	
-0.139465	0.126648	
-0.137329	0.126343	
-0.135498	0.126038	
-0.133972	0.125732	
-0.133057	0.125427	
-0.132141	0.125122	
-0.131836	0.125122	
-0.131836	0.125427	
-0.132446	0.125732	
-0.133362	0.126343	
-0.134888	0.127258	
-0.137329	0.128784	
-0.140076	0.130615	
-0.143127	0.132751	
-0.146484	0.135193	
-0.149841	0.138245	
-0.152588	0.141296	
-0.155029	0.144653	
-0.157166	0.14801	
-0.158691	0.151367	
-0.160217	0.154724	
-0.161133	0.158386	
-0.161438	0.162659	
-0.161743	0.166931	
-0.161438	0.171509	
-0.160828	0.176086	
-0.159912	0.180969	
-0.158997	0.185852	
-0.157776	0.19104	
-0.156555	0.196228	
-0.15564	0.201416	
-0.154419	0.206299	
-0.153198	0.211487	
-0.152283	0.216675	
-0.151062	0.221558	
-0.150452	0.226746	
-0.149536	0.231934	
-0.148926	0.237427	
-0.148315	0.242615	
-0.147705	0.247803	
-0.147095	0.252991	
-0.146484	0.258179	
-0.145569	0.263062	
-0.144348	0.26825	
-0.143127	0.273132	
-0.141602	0.27832	
-0.139771	0.283508	
-0.138245	0.288391	
-0.136414	0.293884	
-0.134583	0.299072	
-0.132751	0.30426	
-0.130615	0.309448	
-0.128174	0.314941	
-0.125732	0.319824	
-0.123291	0.324707	
-0.12085	0.32959	
-0.118408	0.333862	
-0.116272	0.338135	
-0.113831	0.342102	
-0.111389	0.345764	
-0.108948	0.349426	
-0.106201	0.352478	
-0.103455	0.355225	
-0.100708	0.357666	
-0.0976563	0.359497	
-0.0949097	0.361023	
-0.0921631	0.362244	
-0.0897217	0.363159	
-0.0872803	0.363464	
-0.0848389	0.36377	
-0.0830078	0.36377	
-0.0808716	0.363159	
-0.0790405	0.362549	
-0.0772095	0.361938	
-0.0759888	0.361023	
-0.0744629	0.359802	
-0.0735474	0.358276	
-0.0726318	0.356445	
-0.0717163	0.354614	
-0.0708008	0.352783	
-0.0698853	0.351257	
-0.0692749	0.349426	
-0.0689697	0.3479	
-0.0686646	0.34668	
-0.0683594	0.345459	
-0.0683594	0.344543	
-0.0680542	0.343933	
-0.067749	0.343323	
-0.0674438	0.342712	
-0.0668335	0.342407	
-0.0665283	0.342407	
-0.065918	0.342407	
-0.065918	0.342407	
-0.065918	0.342712	
-0.0662231	0.343018	
-0.0668335	0.343018	
-0.067749	0.343323	
-0.0689697	0.343018	
-0.0701904	0.343018	
-0.0714111	0.342712	
-0.072937	0.342102	
-0.0744629	0.341492	
-0.0759888	0.341187	
-0.0775146	0.340576	
-0.0790405	0.340271	
-0.0802612	0.339966	
-0.0814819	0.339355	
-0.0827026	0.338745	
-0.0836182	0.338135	
-0.0842285	0.337524	
-0.0845337	0.336914	
-0.0845337	0.336609	
-0.0842285	0.335999	
-0.083313	0.335693	
-0.0823975	0.335693	
-0.0811768	0.335693	
-0.0799561	0.335999	
-0.0784302	0.336304	
-0.0772095	0.336609	
-0.0762939	0.336914	
-0.0753784	0.337219	
-0.0744629	0.337524	
-0.0738525	0.33783	
-0.0732422	0.33783	
-0.0726318	0.338135	
-0.0723267	0.338135	
-0.0723267	0.33783	
-0.0723267	0.337219	
-0.0723267	0.336609	
-0.0723267	0.335388	
-0.0723267	0.334167	
-0.0723267	0.332336	
-0.0720215	0.330811	
-0.0714111	0.328979	
-0.0708008	0.327454	
-0.0698853	0.325623	
-0.0689697	0.324402	
-0.0680542	0.322876	
-0.0671387	0.32135	
-0.0662231	0.320129	
-0.0656128	0.318909	
-0.0646973	0.317688	
-0.0640869	0.316772	
-0.0634766	0.316162	
-0.0631714	0.315247	
-0.0631714	0.314636	
-0.0631714	0.314331	
-0.0634766	0.313721	
-0.0640869	0.313416	
-0.0650024	0.313416	
-0.0662231	0.313416	
-0.0671387	0.313416	
-0.0683594	0.313416	
-0.0695801	0.313416	
-0.0708008	0.313416	
-0.0720215	0.313416	
-0.0735474	0.313721	
-0.0750732	0.313721	
-0.0762939	0.314026	
-0.0775146	0.314331	
-0.078125	0.314941	
-0.0787354	0.315552	
-0.0790405	0.316162	
-0.0790405	0.316467	
-0.0784302	0.316772	
-0.0772095	0.316772	
-0.0759888	0.316467	
-0.0744629	0.315552	
-0.072937	0.314636	
-0.071106	0.313416	
-0.0692749	0.312195	
-0.0671387	0.310974	
-0.0650024	0.309448	
-0.062561	0.307922	
-0.0604248	0.306396	
-0.0582886	0.304565	
-0.0561523	0.30304	
-0.0543213	0.301208	
-0.0527954	0.299683	
-0.0515747	0.298462	
-0.0506592	0.297546	
-0.0497437	0.297241	
-0.0494385	0.296936	
-0.0491333	0.297241	
-0.0488281	0.297852	
-0.0488281	0.298767	
-0.0491333	0.299683	
-0.0494385	0.300903	
-0.0500488	0.302124	
-0.0506592	0.30304	
-0.0512695	0.30426	
-0.0521851	0.305176	
-0.0527954	0.306091	
-0.0534058	0.307007	
-0.0537109	0.307617	
-0.0540161	0.307922	
-0.0543213	0.307922	
-0.0546265	0.307617	
-0.0549316	0.307007	
-0.055542	0.306091	
-0.0561523	0.305176	
-0.0567627	0.303955	
-0.057373	0.302734	
-0.0576782	0.301514	
-0.0579834	0.300293	
-0.0582886	0.298767	
-0.0582886	0.297546	
-0.0582886	0.296631	
-0.0582886	0.295715	
-0.0582886	0.295105	
-0.0579834	0.294189	
-0.0579834	0.293579	
-0.0576782	0.292969	
-0.057373	0.292358	
-0.057373	0.291748	
-0.057373	0.291138	
-0.0567627	0.290833	
-0.0561523	0.290222	
-0.055542	0.289307	
-0.0543213	0.288696	
-0.0534058	0.287781	
-0.0524902	0.286865	
-0.0515747	0.28595	
-0.0509644	0.284729	
-0.0506592	0.283508	
-0.050354	0.282288	
-0.0506592	0.281067	
-0.0506592	0.280151	
-0.0509644	0.279236	
-0.0512695	0.278625	
-0.0512695	0.27832	
-0.0515747	0.27771	
-0.0515747	0.277405	
-0.0515747	0.277405	
-0.0515747	0.2771	
-0.0515747	0.2771	
-0.0512695	0.277405	
-0.0509644	0.27771	
-0.050354	0.278015	
-0.0494385	0.278625	
-0.0482178	0.278931	
-0.0469971	0.279541	
-0.0454712	0.279846	
-0.0436401	0.280151	
-0.0418091	0.280457	
-0.0402832	0.280457	
-0.0387573	0.280151	
-0.0378418	0.279846	
-0.0375366	0.279541	
-0.0378418	0.278931	
-0.038147	0.27832	
-0.0390625	0.27771	
-0.039978	0.2771	
-0.0408936	0.276489	
-0.0418091	0.276184	
-0.0430298	0.275574	
-0.0442505	0.274963	
-0.045166	0.274353	
-0.0460815	0.273743	
-0.0469971	0.273132	
-0.0473022	0.272827	
-0.0473022	0.272217	
-0.0469971	0.271912	
-0.0463867	0.271912	
-0.0454712	0.271912	
-0.0445557	0.272217	
-0.0436401	0.272217	
-0.0430298	0.272217	
-0.0424194	0.272522	
-0.0418091	0.272522	
-0.0418091	0.272522	
-0.0418091	0.272522	
-0.0418091	0.272217	
-0.0421143	0.271912	
-0.0424194	0.271301	
-0.0430298	0.270691	
-0.0436401	0.270081	
-0.0445557	0.269165	
-0.045166	0.26825	
-0.0457764	0.267334	
-0.0463867	0.266113	
-0.0466919	0.264893	
-0.0469971	0.263977	
-0.0469971	0.262756	
-0.0473022	0.26123	
-0.0469971	0.26001	
-0.0466919	0.258789	
-0.0460815	0.257568	
-0.045166	0.256348	
-0.0442505	0.255737	
-0.0430298	0.254822	
-0.0418091	0.254517	
-0.0408936	0.254211	
-0.039978	0.254211	
-0.0393677	0.254517	
-0.0390625	0.254822	
-0.0390625	0.255432	
-0.0393677	0.256348	
-0.0396729	0.257263	
-0.039978	0.258484	
-0.0402832	0.259705	
-0.0405884	0.26123	
-0.0408936	0.263062	
-0.0408936	0.264893	
-0.0408936	0.267029	
-0.0405884	0.269165	
-0.0402832	0.271606	
-0.0393677	0.273743	
-0.038147	0.275879	
-0.0366211	0.278015	
-0.0344849	0.280457	
-0.0317383	0.282898	
-0.0283813	0.285645	
-0.0244141	0.288391	
-0.0201416	0.291443	
-0.015564	0.2948	
-0.010376	0.298157	
-0.00518799	0.301819	
0.000305176	0.306091	
0.00610352	0.310364	
0.0115967	0.314941	
0.0170898	0.319824	
0.0222778	0.325012	
0.0271606	0.330505	
0.0317383	0.335693	
0.0366211	0.341187	
0.0411987	0.346375	
0.0463867	0.351563	
0.0515747	0.356445	
0.0570679	0.361023	
0.062561	0.365601	
0.0683594	0.369568	
0.0744629	0.37323	
0.0805664	0.376282	
0.0869751	0.379028	
0.093689	0.38147	
0.100403	0.383301	
0.107422	0.385132	
0.114441	0.386658	
0.121765	0.388184	
0.129089	0.389709	
0.136108	0.39093	
0.142822	0.392151	
0.149231	0.393372	
0.155334	0.393982	
0.160828	0.394897	
0.166016	0.395508	
0.170898	0.396118	
0.175781	0.396423	
0.180054	0.397034	
0.184326	0.397644	
0.187988	0.397949	
0.191345	0.398254	
0.194397	0.397949	
0.197144	0.397644	
0.199585	0.396729	
0.201416	0.395813	
0.203247	0.394287	
0.204468	0.392761	
0.205078	0.391235	
0.205688	0.389709	
0.206299	0.388184	
0.206299	0.386658	
0.206299	0.385437	
0.205994	0.383911	
0.205688	0.38269	
0.205078	0.38147	
0.204468	0.380249	
0.203552	0.379028	
0.202942	0.377808	
0.202332	0.376587	
0.201721	0.375671	
0.201416	0.374451	
0.201416	0.373535	
0.201721	0.372925	
0.202026	0.372009	
0.202332	0.371399	
0.203247	0.370789	
0.203857	0.370178	
0.204773	0.369263	
0.205688	0.368042	
0.206604	0.366821	
0.20752	0.365601	
0.20813	0.36438	
0.209045	0.363159	
0.209656	0.362244	
0.210571	0.361328	
0.211182	0.360718	
0.212097	0.360107	
0.213013	0.359192	
0.213928	0.358582	
0.214844	0.357666	
0.215759	0.35675	
0.216675	0.35614	
0.217285	0.355225	
0.21759	0.354309	
0.21759	0.353699	
0.217285	0.353088	
0.216675	0.352478	
0.216064	0.351563	
0.215759	0.350952	
0.215454	0.350647	
0.215149	0.350037	
0.215149	0.350037	
0.215454	0.349731	
0.216064	0.349731	
0.21637	0.349426	
0.21637	0.349426	
0.216675	0.349121	
0.21698	0.348816	
0.21759	0.348816	
0.218201	0.348206	
0.218811	0.3479	
0.219727	0.34729	
0.220642	0.346985	
0.221558	0.346069	
0.222778	0.345459	
0.223389	0.344543	
0.223999	0.343628	
0.224609	0.342712	
0.224609	0.341492	
0.224304	0.339966	
0.223694	0.338745	
0.223083	0.337219	
0.222473	0.335999	
0.221558	0.335083	
0.220642	0.334167	
0.219727	0.333557	
0.218506	0.333252	
0.21759	0.332947	
0.21637	0.333252	
0.215454	0.333557	
0.214539	0.333862	
0.214233	0.334473	
0.214233	0.335388	
0.214539	0.335999	
0.214844	0.336914	
0.215149	0.33783	
0.215149	0.338745	
0.215149	0.339355	
0.214844	0.339966	
0.214844	0.340576	
0.214844	0.341187	
0.214844	0.341492	
0.214539	0.341492	
0.214233	0.341492	
0.213623	0.341187	
0.212402	0.340576	
0.211487	0.339355	
0.210571	0.338135	
0.209961	0.336609	
0.209045	0.335083	
0.20874	0.333252	
0.20813	0.331421	
0.207825	0.32959	
0.207825	0.327454	
0.20813	0.325317	
0.209045	0.323486	
0.210266	0.32135	
0.212097	0.319519	
0.214233	0.317383	
0.21637	0.315552	
0.218506	0.314026	
0.220642	0.312805	
0.222168	0.311584	
0.223694	0.310974	
0.224915	0.310364	
0.225525	0.310059	
0.22583	0.310059	
0.22583	0.309753	
0.22522	0.309753	
0.223999	0.309448	
0.222473	0.309448	
0.220642	0.309448	
0.218506	0.309448	
0.216064	0.309143	
0.213318	0.309143	
0.210876	0.308838	
0.208435	0.308228	
0.206299	0.307922	
0.204773	0.307312	
0.203247	0.307007	
0.202026	0.306396	
0.201111	0.305481	
0.200806	0.304565	
0.201111	0.303345	
0.201721	0.302124	
0.203247	0.300903	
0.205078	0.299683	
0.206909	0.298462	
0.209045	0.296936	
0.211182	0.295715	
0.213013	0.294495	
0.215149	0.293274	
0.21698	0.291748	
0.218506	0.290527	
0.220337	0.289307	
0.221863	0.288086	
0.223083	0.286865	
0.223999	0.285645	
0.224304	0.285034	
0.224304	0.284424	
0.223694	0.284119	
0.222778	0.283813	
0.221558	0.283813	
0.220337	0.284424	
0.219421	0.285034	
0.218201	0.285645	
0.21698	0.28656	
0.215759	0.28717	
0.214233	0.288086	
0.212402	0.289001	
0.210876	0.289612	
0.209656	0.290222	
0.209045	0.290833	
0.208435	0.290833	
0.20813	0.290833	
0.20813	0.290833	
0.20813	0.290527	
0.20813	0.289917	
0.207825	0.289612	
0.20752	0.289001	
0.20752	0.288391	
0.20752	0.287781	
0.20752	0.286865	
0.207825	0.286255	
0.207825	0.285645	
0.20813	0.285034	
0.208435	0.284119	
0.20874	0.283508	
0.209045	0.282898	
0.209351	0.282288	
0.209656	0.281982	
0.209961	0.281372	
0.210266	0.280762	
0.210571	0.280151	
0.210876	0.279541	
0.211182	0.278931	
0.211182	0.278015	
0.211182	0.277405	
0.210876	0.276489	
0.210571	0.275574	
0.210266	0.274963	
0.209961	0.274353	
0.209351	0.274048	
0.209351	0.274048	
0.209045	0.273743	
0.209045	0.274048	
0.209045	0.274048	
0.209045	0.274353	
0.209045	0.274658	
0.209045	0.274963	
0.209045	0.275574	
0.209351	0.276184	
0.209656	0.276794	
0.210266	0.277405	
0.211182	0.27771	
0.211792	0.27832	
0.212402	0.27832	
0.212708	0.27832	
0.213013	0.278015	
0.213318	0.27771	
0.213623	0.2771	
0.213623	0.276489	
0.213928	0.275574	
0.213928	0.274658	
0.213928	0.273743	
0.213928	0.272217	
0.213928	0.270996	
0.213623	0.26947	
0.213623	0.267944	
0.213318	0.266418	
0.213013	0.265198	
0.212708	0.263977	
0.212097	0.263062	
0.211792	0.262146	
0.211182	0.26123	
0.210571	0.260315	
0.209961	0.259705	
0.209351	0.259399	
0.20874	0.259094	
0.20813	0.259094	
0.207214	0.259399	
0.206299	0.26001	
0.205383	0.26062	
0.204163	0.261536	
0.203247	0.262146	
0.202332	0.263062	
0.201416	0.263672	
0.200806	0.264587	
0.2005	0.265198	
0.2005	0.265808	
0.2005	0.266418	
0.200806	0.266724	
0.201111	0.267029	
0.201721	0.267334	
0.202026	0.267029	
0.202332	0.266724	
0.202942	0.266418	
0.203552	0.265808	
0.204163	0.265198	
0.204773	0.264282	
0.205383	0.263367	
0.205688	0.262451	
0.205994	0.261536	
0.205994	0.260315	
0.205688	0.259399	
0.205383	0.258789	
0.204773	0.258179	
0.204468	0.257568	
0.203857	0.257263	
0.203552	0.257263	
0.202942	0.257568	
0.202026	0.257874	
0.201111	0.258484	
0.19989	0.259399	
0.198669	0.260315	
0.197144	0.26123	
0.195618	0.262451	
0.194092	0.263672	
0.192261	0.264587	
0.19043	0.265808	
0.188293	0.267029	
0.186157	0.267944	
0.184021	0.269165	
0.181885	0.270386	
0.179749	0.270996	
0.177612	0.271912	
0.176086	0.272217	
0.174561	0.272522	
0.173645	0.272827	
0.173035	0.273132	
0.172424	0.273438	
0.172729	0.273438	
0.173035	0.273438	
0.174255	0.273438	
0.175476	0.273132	
0.177307	0.273132	
0.179443	0.272827	
0.18158	0.272827	
0.183716	0.272522	
0.185852	0.272522	
0.187988	0.272522	
0.190125	0.272217	
0.192871	0.272217	
0.195313	0.272217	
0.197754	0.272217	
0.19989	0.272217	
0.201721	0.272522	
0.202942	0.272522	
0.203552	0.272217	
0.203857	0.272217	
0.203857	0.272217	
0.203552	0.271912	
0.203552	0.271912	
0.203247	0.271301	
0.203247	0.270996	
0.203247	0.270386	
0.202942	0.26947	
0.202332	0.268555	
0.201721	0.267334	
0.201111	0.266113	
0.2005	0.264893	
0.19989	0.263977	
0.199585	0.262756	
0.199585	0.261536	
0.19928	0.26062	
0.19928	0.259705	
0.19928	0.259094	
0.19928	0.258484	
0.19928	0.258484	
0.19928	0.258179	
0.19928	0.258484	
0.19928	0.258789	
0.198975	0.259094	
0.198975	0.259705	
0.198669	0.260315	
0.198669	0.260925	
0.198669	0.261536	
0.198364	0.262146	
0.198364	0.262451	
0.197754	0.262451	
0.197449	0.262146	
0.197144	0.261841	
0.196838	0.260925	
0.196533	0.259705	
0.196533	0.258484	
0.196228	0.257263	
0.196228	0.255737	
0.196228	0.254211	
0.196228	0.25238	
0.196533	0.250854	
0.196533	0.249329	
0.196838	0.247803	
0.196838	0.246277	
0.196838	0.244751	
0.197144	0.243225	
0.197449	0.241699	
0.198059	0.240784	
0.198669	0.239868	
0.199585	0.239258	
0.2005	0.238647	
0.201721	0.238342	
0.202637	0.238037	
0.203247	0.238037	
0.204163	0.237732	
0.204773	0.237732	
0.205078	0.237732	
0.205383	0.237732	
0.205383	0.237427	
0.205383	0.237427	
0.205078	0.237427	
0.204773	0.237427	
0.204468	0.237732	
0.203857	0.237732	
0.203247	0.237732	
0.202637	0.237732	
0.201721	0.237732	
0.201111	0.237732	
0.2005	0.237732	
0.19989	0.237732	
0.199585	0.237427	
0.19928	0.237122	
0.19928	0.236816	
0.19928	0.236816	
0.199585	0.236511	
0.19989	0.236206	
0.19989	0.235901	
0.200195	0.235596	
0.200195	0.235596	
0.200195	0.235596	
0.19989	0.235596	
0.19928	0.235901	
0.198669	0.236206	
0.197754	0.236511	
0.196533	0.236816	
0.195618	0.237427	
0.194092	0.238342	
0.192871	0.238953	
0.191956	0.239868	
0.19104	0.240479	
0.19043	0.241394	
0.19043	0.242004	
0.190735	0.24231	
0.191345	0.24292	
0.192261	0.243225	
0.193481	0.243225	
0.194702	0.243225	
0.196533	0.243225	
0.198669	0.24292	
0.201721	0.242615	
0.205078	0.242004	
0.209045	0.241394	
0.213318	0.240479	
0.218201	0.239258	
0.223083	0.238037	
0.228577	0.236206	
0.234375	0.234375	
0.240479	0.232544	
0.247192	0.230103	
0.254211	0.227966	
0.261536	0.22522	
0.26947	0.222473	
0.27771	0.219421	
0.286255	0.216064	
0.295105	0.212402	
0.30426	0.208435	
0.313416	0.204468	
0.322571	0.200195	
0.331726	0.195923	
0.340576	0.191345	
0.349426	0.186768	
0.357971	0.18219	
0.365906	0.177917	
0.37384	0.17334	
0.38147	0.168762	
0.388794	0.164185	
0.395508	0.159607	
0.401917	0.155029	
0.40802	0.150452	
0.413818	0.145874	
0.419922	0.141602	
0.426025	0.137024	
0.432434	0.132446	
0.439453	0.128174	
0.446472	0.123596	
0.453796	0.119324	
0.461731	0.115051	
0.46936	0.111084	
0.4776	0.107422	
0.48584	0.104065	
0.49469	0.100708	
0.50354	0.0979614	
0.51239	0.0952148	
0.521545	0.0927734	
0.530396	0.0900269	
0.53894	0.0869751	
0.547485	0.0839233	
0.555725	0.0808716	
0.56366	0.0778198	
0.570984	0.0750732	
0.578003	0.0723267	
0.584412	0.0695801	
0.590515	0.0668335	
0.596313	0.0637817	
0.601501	0.0610352	
0.606689	0.0579834	
0.612183	0.0549316	
0.617371	0.0521851	
0.622864	0.0497437	
0.628357	0.0476074	
0.63385	0.0454712	
0.639343	0.0439453	
0.644836	0.0424194	
0.650635	0.0411987	
0.656738	0.0402832	
0.663147	0.0393677	
0.669861	0.0384521	
0.67688	0.0375366	
0.684204	0.0366211	
0.691528	0.0354004	
0.699158	0.0341797	
0.706482	0.0326538	
0.713806	0.0314331	
0.72113	0.0296021	
0.728149	0.027771	
0.734863	0.0256348	
0.741577	0.0231934	
0.747681	0.020752	
0.753479	0.0177002	
0.758667	0.0149536	
0.763245	0.0119019	
0.767517	0.0088501	
0.771179	0.00579834	
0.774536	0.00274658	
0.777588	0	
0.780334	-0.00274658	
0.783081	-0.00518799	
0.785522	-0.00762939	
0.787659	-0.00976563	
0.7901	-0.012207	
0.792236	-0.0143433	
0.794373	-0.0161743	
0.796814	-0.0180054	
0.799255	-0.0198364	
0.802002	-0.0213623	
0.804749	-0.022583	
0.8078	-0.0234985	
0.811157	-0.0244141	
0.814819	-0.0250244	
0.818481	-0.0256348	
0.821838	-0.0256348	
0.825195	-0.0256348	
0.828552	-0.0256348	
0.831909	-0.0253296	
0.834961	-0.0247192	
0.837708	-0.0244141	
0.840454	-0.0238037	
0.842896	-0.0234985	
0.845337	-0.0228882	
0.847778	-0.022583	
0.85022	-0.0222778	
0.852661	-0.0222778	
0.854797	-0.0219727	
0.856934	-0.0219727	
0.85907	-0.0219727	
0.860596	-0.0222778	
0.862122	-0.0222778	
0.863342	-0.0228882	
0.864563	-0.0234985	
0.865479	-0.0244141	
0.866089	-0.0256348	
0.867004	-0.0268555	
0.868225	-0.0283813	
0.869141	-0.0296021	
0.870056	-0.0308228	
0.870972	-0.0320435	
0.871277	-0.0332642	
0.871582	-0.0344849	
0.871887	-0.0354004	
0.872192	-0.0363159	
0.872498	-0.0372314	
0.873108	-0.0375366	
0.873718	-0.0378418	
0.874023	-0.0378418	
0.874634	-0.0378418	
0.874939	-0.0375366	
0.875549	-0.0372314	
0.875854	-0.0369263	
0.87677	-0.0363159	
0.87738	-0.0360107	
0.878296	-0.0354004	
0.878906	-0.0350952	
0.879211	-0.0344849	
0.879822	-0.0338745	
0.880127	-0.0335693	
0.880127	-0.0332642	
0.880127	-0.032959	
0.880127	-0.032959	
0.879822	-0.0326538	
0.879517	-0.0326538	
0.878906	-0.0326538	
0.878601	-0.0326538	
0.877991	-0.0326538	
0.87738	-0.032959	
0.876465	-0.032959	
0.875244	-0.0332642	
0.873718	-0.0335693	
0.871887	-0.0335693	
0.870056	-0.0338745	
0.86792	-0.0338745	
0.865784	-0.0338745	
0.863647	-0.0341797	
0.861511	-0.0341797	
0.859375	-0.0344849	
0.857544	-0.03479	
0.856018	-0.0350952	
0.854797	-0.0354004	
0.853577	-0.0360107	
0.852661	-0.0366211	
0.852051	-0.0372314	
0.852051	-0.0378418	
0.852051	-0.0387573	
0.852356	-0.0393677	
0.852966	-0.0402832	
0.853882	-0.0411987	
0.854797	-0.0421143	
0.856018	-0.0430298	
0.857239	-0.0442505	
0.858459	-0.0454712	
0.859985	-0.0463867	
0.861206	-0.0476074	
0.862427	-0.0485229	
0.863647	-0.0491333	
0.864258	-0.0494385	
0.864868	-0.0497437	
0.865173	-0.0497437	
0.865479	-0.0494385	
0.865784	-0.0488281	
0.865784	-0.0482178	
0.865784	-0.0473022	
0.865784	-0.0460815	
0.865479	-0.045166	
0.864868	-0.0439453	
0.864563	-0.0430298	
0.864258	-0.0421143	
0.863953	-0.0415039	
0.863647	-0.0408936	
0.863342	-0.0402832	
0.863037	-0.039978	
0.862732	-0.039978	
0.862122	-0.0396729	
0.861206	-0.0396729	
0.859985	-0.039978	
0.85907	-0.0402832	
0.858154	-0.0405884	
0.857239	-0.0411987	
0.856323	-0.0415039	
0.855408	-0.0421143	
0.854492	-0.0427246	
0.853271	-0.0427246	
0.852051	-0.0430298	
0.850525	-0.0427246	
0.849304	-0.0427246	
0.848389	-0.0427246	
0.848083	-0.0427246	
0.847778	-0.0427246	
0.847473	-0.0430298	
0.847778	-0.0436401	
0.848083	-0.0445557	
0.848999	-0.0454712	
0.849915	-0.0466919	
0.851135	-0.0482178	
0.852661	-0.0497437	
0.854492	-0.0509644	
0.856323	-0.0524902	
0.858154	-0.0540161	
0.859985	-0.055542	
0.861511	-0.0567627	
0.863037	-0.0582886	
0.864258	-0.0592041	
0.865173	-0.0604248	
0.866089	-0.0610352	
0.866394	-0.0616455	
0.866394	-0.0616455	
0.866394	-0.0616455	
0.865784	-0.0613403	
0.864868	-0.0604248	
0.863342	-0.0595093	
0.861816	-0.0582886	
0.860291	-0.0570679	
0.858765	-0.055542	
0.856934	-0.0540161	
0.855408	-0.0527954	
0.854187	-0.0515747	
0.852661	-0.0506592	
0.851746	-0.0500488	
0.85083	-0.0494385	
0.85022	-0.0488281	
0.849915	-0.0485229	
0.849304	-0.0482178	
0.848999	-0.0485229	
0.848694	-0.0488281	
0.848389	-0.0494385	
0.848083	-0.0500488	
0.847473	-0.0509644	
0.847168	-0.0518799	
0.846558	-0.0531006	
0.845947	-0.0540161	
0.845337	-0.0549316	
0.844727	-0.055542	
0.844421	-0.0561523	
0.844116	-0.0564575	
0.843811	-0.0567627	
0.843506	-0.0570679	
0.843506	-0.0570679	
0.843811	-0.057373	
0.844116	-0.057373	
0.844421	-0.0570679	
0.845032	-0.0570679	
0.845642	-0.0567627	
0.846252	-0.0564575	
0.846558	-0.0558472	
0.846558	-0.055542	
0.846863	-0.0552368	
0.846863	-0.0549316	
0.846558	-0.0546265	
0.845947	-0.0546265	
0.845032	-0.0546265	
0.843811	-0.0549316	
0.84198	-0.0549316	
0.839844	-0.0552368	
0.837708	-0.055542	
0.835266	-0.0558472	
0.833435	-0.0561523	
0.831299	-0.0564575	
0.829468	-0.0564575	
0.827942	-0.0567627	
0.826111	-0.0567627	
0.824585	-0.0564575	
0.823364	-0.0564575	
0.822449	-0.0561523	
0.821838	-0.055542	
0.821533	-0.0549316	
0.821838	-0.0543213	
0.822449	-0.0537109	
0.823364	-0.0527954	
0.82428	-0.0521851	
0.8255	-0.0515747	
0.826721	-0.0512695	
0.827942	-0.0509644	
0.829163	-0.0509644	
0.830383	-0.0509644	
0.831299	-0.0515747	
0.832214	-0.0518799	
0.832825	-0.0527954	
0.833435	-0.0537109	
0.834045	-0.0546265	
0.834351	-0.0558472	
0.834656	-0.0567627	
0.834351	-0.0579834	
0.833435	-0.0588989	
0.832214	-0.0598145	
0.830383	-0.06073	
0.828247	-0.0613403	
0.825806	-0.0616455	
0.823669	-0.0616455	
0.821533	-0.0613403	
0.819702	-0.06073	
0.818176	-0.0601196	
0.81665	-0.0592041	
0.81543	-0.0582886	
0.814514	-0.057373	
0.813599	-0.0567627	
0.812683	-0.0561523	
0.812378	-0.055542	
0.812073	-0.0552368	
0.812073	-0.0549316	
0.812683	-0.0549316	
0.813293	-0.0552368	
0.814209	-0.055542	
0.815125	-0.0558472	
0.81604	-0.0564575	
0.816956	-0.0570679	
0.817871	-0.0579834	
0.818481	-0.0585938	
0.819092	-0.0592041	
0.819397	-0.0595093	
0.819397	-0.0598145	
0.819092	-0.0598145	
0.819092	-0.0598145	
0.818787	-0.0595093	
0.818481	-0.0595093	
0.818176	-0.0592041	
0.817566	-0.0585938	
0.816956	-0.0582886	
0.81604	-0.0576782	
0.815125	-0.0570679	
0.814209	-0.0564575	
0.813599	-0.0561523	
0.813293	-0.055542	
0.813599	-0.055542	
0.813599	-0.0552368	
0.813904	-0.055542	
0.814514	-0.0558472	
0.815125	-0.0564575	
0.81543	-0.0570679	
0.816345	-0.0579834	
0.817261	-0.0588989	
0.818481	-0.0598145	
0.819702	-0.06073	
0.820923	-0.0616455	
0.822144	-0.0622559	
0.823364	-0.0628662	
0.82428	-0.0631714	
0.82489	-0.0631714	
0.82489	-0.0631714	
0.82489	-0.0628662	
0.824585	-0.062561	
0.823975	-0.0622559	
0.823059	-0.0616455	
0.822144	-0.0610352	
0.820923	-0.0604248	
0.819397	-0.0601196	
0.817566	-0.0595093	
0.81604	-0.0592041	
0.814514	-0.0588989	
0.813293	-0.0588989	
0.812073	-0.0588989	
0.811157	-0.0592041	
0.809937	-0.0598145	
0.809021	-0.06073	
0.808411	-0.0616455	
0.808105	-0.062561	
0.8078	-0.0637817	
0.8078	-0.0650024	
0.808105	-0.0665283	
0.808716	-0.067749	
0.809021	-0.0692749	
0.809631	-0.0704956	
0.810242	-0.0717163	
0.810547	-0.0726318	
0.810852	-0.0738525	
0.811157	-0.0744629	
0.811157	-0.0753784	
0.810852	-0.0759888	
0.810852	-0.0765991	
0.810242	-0.0769043	
0.809631	-0.0772095	
0.808716	-0.0775146	
0.807495	-0.0778198	
0.805969	-0.0778198	
0.804138	-0.0778198	
0.802307	-0.0778198	
0.800476	-0.0778198	
0.798645	-0.0778198	
0.797424	-0.0775146	
0.796204	-0.0772095	
0.794983	-0.0769043	
0.794373	-0.0765991	
0.793457	-0.0762939	
0.792847	-0.0759888	
0.792542	-0.0756836	
0.792542	-0.0753784	
0.792847	-0.0750732	
0.793762	-0.0747681	
0.794678	-0.0747681	
0.796204	-0.0744629	
0.797424	-0.0744629	
0.79895	-0.0744629	
0.800171	-0.0741577	
0.801697	-0.0741577	
0.802917	-0.0738525	
0.804443	-0.0741577	
0.805359	-0.0741577	
0.806274	-0.0744629	
0.806885	-0.0744629	
0.80719	-0.0744629	
0.8078	-0.0744629	
0.8078	-0.0744629	
0.807495	-0.0741577	
0.806885	-0.0741577	
0.805359	-0.0738525	
0.803528	-0.0738525	
0.801392	-0.0738525	
0.799255	-0.0741577	
0.797119	-0.0741577	
0.794983	-0.0744629	
0.792847	-0.0744629	
0.79071	-0.0747681	
0.788879	-0.0750732	
0.787048	-0.0753784	
0.785522	-0.0756836	
0.784302	-0.0762939	
0.783386	-0.0772095	
0.782776	-0.0778198	
0.782776	-0.0787354	
0.783081	-0.0796509	
0.783691	-0.0805664	
0.784912	-0.0814819	
0.786438	-0.0820923	
0.788269	-0.0827026	
0.790405	-0.0830078	
0.792236	-0.083313	
0.794067	-0.083313	
0.795898	-0.083313	
0.797424	-0.0830078	
0.79895	-0.0827026	
0.800171	-0.0823975	
0.801086	-0.0817871	
0.801697	-0.0814819	
0.802002	-0.0808716	
0.802002	-0.0805664	
0.802002	-0.0799561	
0.801392	-0.0796509	
0.800781	-0.0793457	
0.799866	-0.0793457	
0.798645	-0.0790405	
0.797424	-0.0790405	
0.795898	-0.0790405	
0.794373	-0.0790405	
0.792847	-0.0790405	
0.791321	-0.0790405	
0.789795	-0.0790405	
0.788269	-0.0787354	
0.786743	-0.0787354	
0.785217	-0.0784302	
0.783997	-0.078125	
0.782776	-0.0775146	
0.78186	-0.0765991	
0.780945	-0.0756836	
0.780029	-0.0747681	
0.779114	-0.0735474	
0.778503	-0.0723267	
0.777893	-0.071106	
0.777283	-0.0698853	
0.776978	-0.0686646	
0.776672	-0.0671387	
0.776367	-0.065918	
0.775757	-0.0646973	
0.775146	-0.0634766	
0.774536	-0.062561	
0.773926	-0.0619507	
0.773315	-0.0613403	
0.77301	-0.06073	
0.772705	-0.0604248	
0.772705	-0.0604248	
0.772705	-0.0610352	
0.773315	-0.0616455	
0.773926	-0.062561	
0.774841	-0.0637817	
0.775757	-0.0653076	
0.776672	-0.0674438	
0.777588	-0.0698853	
0.778503	-0.0726318	
0.779114	-0.0759888	
0.779419	-0.0793457	
0.779724	-0.083313	
0.779419	-0.0875854	
0.778809	-0.0921631	
0.777893	-0.0970459	
0.776672	-0.102234	
0.775146	-0.107727	
0.773621	-0.113831	
0.771484	-0.119934	
0.769348	-0.126343	
0.766907	-0.132751	
0.764465	-0.139465	
0.762024	-0.146179	
0.759888	-0.152893	
0.757446	-0.159607	
0.75531	-0.166321	
0.753479	-0.173035	
0.751648	-0.179749	
0.749817	-0.186157	
0.747986	-0.192566	
0.74585	-0.198669	
0.743713	-0.204773	
0.740967	-0.210266	
0.73822	-0.215759	
0.735168	-0.220947	
0.731506	-0.226135	
0.727539	-0.230713	
0.722961	-0.235291	
0.718079	-0.239563	
0.712891	-0.24353	
0.707397	-0.247192	
0.701904	-0.250549	
0.696411	-0.253601	
0.691223	-0.256348	
0.68634	-0.259399	
0.682068	-0.262146	
0.678101	-0.264893	
0.674744	-0.267639	
0.671997	-0.270691	
0.669861	-0.273438	
0.66803	-0.276489	
0.666809	-0.279541	
0.665894	-0.282593	
0.665588	-0.28595	
0.665283	-0.289307	
0.665283	-0.292664	
0.664673	-0.296631	
0.664063	-0.300903	
0.663147	-0.305481	
0.661926	-0.310364	
0.660095	-0.315552	
0.658264	-0.321045	
0.656128	-0.326538	
0.654297	-0.332336	
0.652161	-0.338135	
0.65033	-0.343933	
0.648193	-0.350037	
0.645752	-0.355835	
0.643616	-0.361938	
0.641174	-0.367737	
0.639038	-0.37323	
0.637512	-0.378723	
0.636292	-0.384216	
0.635376	-0.389404	
0.635071	-0.394592	
0.635376	-0.399475	
0.635681	-0.404053	
0.636292	-0.408325	
0.636902	-0.412292	
0.637207	-0.415955	
0.637207	-0.419312	
0.637512	-0.422363	
0.637207	-0.424805	
0.636902	-0.427246	
0.636292	-0.429688	
0.635376	-0.431824	
0.634766	-0.43396	
0.633545	-0.435791	
0.632629	-0.437317	
0.631714	-0.438843	
0.631104	-0.440063	
0.630188	-0.441284	
0.629578	-0.44281	
0.629272	-0.444031	
0.628662	-0.445251	
0.628357	-0.446777	
0.628052	-0.447998	
0.627747	-0.449219	
0.627747	-0.450439	
0.627747	-0.45166	
0.627441	-0.452576	
0.627136	-0.453796	
0.626831	-0.454712	
0.626526	-0.455627	
0.62561	-0.456238	
0.624695	-0.456543	
0.623474	-0.456848	
0.621948	-0.456848	
0.620422	-0.456543	
0.618591	-0.455933	
0.617065	-0.455627	
0.61554	-0.454712	
0.614319	-0.454102	
0.613403	-0.453491	
0.612488	-0.452576	
0.611572	-0.451965	
0.610657	-0.451355	
0.610046	-0.450745	
0.609436	-0.450439	
0.609131	-0.450134	
0.609131	-0.449829	
0.608826	-0.450134	
0.608826	-0.450134	
0.608521	-0.450439	
0.608215	-0.450745	
0.607605	-0.45105	
0.606995	-0.45105	
0.606384	-0.451355	
0.605774	-0.451355	
0.604858	-0.451355	
0.603943	-0.451355	
0.603027	-0.45166	
0.602417	-0.45166	
0.601501	-0.451965	
0.600891	-0.452271	
0.600281	-0.452271	
0.599976	-0.452271	
0.59967	-0.451965	
0.59906	-0.451965	
0.598755	-0.45166	
0.59845	-0.45166	
0.597839	-0.45166	
0.597534	-0.451355	
0.596619	-0.451355	
0.596008	-0.451355	
0.595093	-0.45105	
0.594177	-0.45105	
0.593262	-0.45105	
0.592041	-0.45105	
0.59082	-0.45105	
0.5896	-0.45105	
0.588684	-0.451355	
0.587769	-0.45166	
0.587463	-0.451965	
0.587158	-0.452271	
0.587158	-0.452576	
0.587158	-0.452576	
0.587158	-0.452881	
0.586853	-0.453186	
0.586853	-0.453491	
0.586853	-0.453796	
0.586853	-0.454102	
0.586548	-0.454407	
0.586243	-0.454407	
0.585938	-0.454407	
0.585327	-0.454102	
0.584717	-0.453796	
0.584106	-0.453491	
0.583496	-0.452881	
0.582886	-0.452576	
0.582275	-0.451965	
0.581665	-0.451355	
0.58136	-0.45105	
0.581055	-0.450439	
0.58075	-0.450134	
0.58075	-0.449829	
0.581055	-0.449219	
0.581055	-0.448914	
0.58136	-0.448608	
0.58136	-0.447998	
0.581055	-0.447693	
0.581055	-0.447083	
0.58075	-0.446472	
0.580139	-0.445862	
0.578918	-0.444946	
0.577698	-0.444031	
0.575867	-0.44281	
0.57373	-0.441284	
0.571594	-0.439758	
0.569153	-0.438232	
0.567017	-0.436707	
0.565186	-0.435486	
0.563354	-0.434265	
0.561829	-0.433655	
0.560608	-0.433044	
0.559998	-0.432739	
0.559387	-0.432739	
0.559387	-0.432739	
0.559998	-0.43335	
0.560608	-0.433655	
0.561829	-0.43457	
0.563354	-0.435486	
0.565186	-0.436707	
0.567017	-0.437927	
0.568848	-0.439148	
0.570984	-0.440369	
0.572815	-0.441589	
0.574341	-0.44281	
0.575867	-0.443726	
0.576782	-0.444336	
0.577698	-0.444946	
0.578003	-0.444946	
0.578003	-0.444946	
0.577698	-0.444641	
0.577393	-0.443726	
0.576477	-0.44281	
0.575562	-0.441895	
0.574646	-0.440674	
0.57312	-0.439453	
0.571289	-0.438538	
0.569458	-0.437622	
0.567627	-0.437012	
0.565796	-0.436401	
0.56366	-0.435486	
0.561829	-0.434875	
0.559692	-0.43396	
0.557861	-0.433044	
0.556335	-0.432129	
0.55481	-0.430908	
0.553589	-0.429688	
0.552368	-0.428467	
0.550842	-0.427246	
0.549622	-0.426331	
0.548401	-0.42572	
0.547791	-0.42511	
0.547485	-0.424805	
0.547485	-0.4245	
0.548096	-0.4245	
0.549011	-0.4245	
0.550232	-0.424805	
0.551453	-0.42511	
0.552979	-0.42572	
0.554199	-0.426331	
0.555725	-0.427246	
0.556946	-0.428162	
0.558472	-0.429382	
0.559998	-0.430298	
0.561829	-0.431213	
0.563354	-0.431824	
0.565186	-0.432739	
0.566406	-0.433044	
0.567627	-0.43335	
0.568542	-0.433655	
0.569153	-0.433655	
0.569153	-0.43335	
0.568848	-0.433044	
0.568542	-0.432739	
0.567627	-0.432129	
0.566406	-0.431519	
0.565186	-0.430908	
0.563965	-0.430298	
0.562744	-0.429688	
0.561523	-0.429382	
0.560608	-0.429077	
0.559692	-0.428772	
0.558777	-0.428772	
0.558167	-0.428772	
0.557556	-0.428772	
0.556946	-0.429077	
0.556335	-0.429077	
0.555725	-0.429382	
0.55542	-0.429688	
0.555115	-0.429993	
0.555115	-0.430298	
0.555115	-0.430298	
0.55542	-0.430603	
0.55542	-0.430908	
0.55542	-0.430908	
0.555115	-0.430908	
0.55481	-0.430908	
0.553894	-0.430603	
0.552979	-0.430603	
0.551758	-0.430298	
0.550537	-0.429688	
0.549622	-0.429382	
0.548401	-0.428772	
0.547791	-0.428162	
0.54718	-0.427551	
0.546875	-0.426941	
0.54657	-0.426331	
0.54657	-0.426025	
0.546875	-0.425415	
0.546875	-0.425415	
0.54718	-0.42511	
0.547791	-0.42511	
0.548401	-0.425415	
0.549011	-0.425415	
0.550232	-0.425415	
0.551453	-0.42572	
0.552673	-0.426025	
0.553894	-0.426331	
0.555115	-0.426331	
0.55603	-0.426636	
0.556946	-0.426636	
0.557556	-0.426636	
0.557861	-0.426331	
0.557861	-0.42572	
0.557861	-0.42511	
0.557556	-0.423889	
0.556946	-0.422363	
0.556335	-0.420837	
0.55542	-0.419006	
0.554199	-0.417175	
0.552673	-0.415344	
0.551453	-0.413818	
0.549927	-0.412598	
0.548401	-0.411377	
0.546875	-0.410461	
0.545654	-0.409851	
0.543823	-0.409546	
0.541992	-0.409546	
0.540161	-0.409851	
0.53833	-0.410461	
0.536804	-0.411377	
0.535583	-0.412598	
0.534973	-0.413818	
0.534363	-0.415649	
0.534363	-0.417175	
0.534668	-0.418701	
0.535278	-0.420532	
0.535889	-0.421753	
0.537109	-0.422974	
0.53833	-0.423889	
0.540161	-0.4245	
0.541687	-0.424805	
0.543518	-0.4245	
0.545349	-0.423889	
0.54718	-0.422974	
0.549011	-0.421753	
0.550537	-0.419922	
0.551758	-0.418396	
0.552979	-0.416565	
0.553589	-0.415039	
0.553894	-0.413818	
0.553894	-0.412903	
0.553284	-0.412292	
0.552368	-0.411987	
0.551147	-0.411987	
0.550232	-0.411987	
0.549316	-0.412292	
0.548401	-0.412903	
0.548096	-0.413818	
0.547791	-0.414734	
0.547485	-0.41626	
0.547485	-0.417786	
0.547791	-0.419922	
0.548096	-0.421753	
0.548706	-0.423889	
0.549316	-0.42572	
0.550232	-0.427551	
0.551147	-0.429382	
0.552063	-0.430603	
0.552979	-0.432129	
0.553589	-0.43335	
0.554199	-0.434265	
0.554504	-0.435486	
0.55481	-0.436096	
0.554504	-0.437012	
0.553589	-0.437317	
0.552368	-0.437927	
0.550842	-0.437927	
0.549316	-0.437927	
0.547485	-0.437622	
0.545959	-0.437012	
0.544434	-0.436401	
0.542908	-0.435791	
0.541382	-0.435486	
0.539551	-0.434875	
0.538025	-0.434265	
0.536499	-0.43396	
0.534973	-0.433655	
0.533752	-0.433044	
0.532837	-0.433044	
0.531921	-0.433044	
0.531311	-0.43335	
0.530701	-0.433655	
0.530396	-0.434265	
0.530396	-0.435181	
0.53009	-0.435791	
0.53009	-0.436707	
0.530396	-0.437622	
0.530396	-0.438538	
0.530701	-0.439453	
0.530701	-0.440674	
0.531006	-0.441589	
0.531006	-0.442505	
0.531006	-0.443115	
0.530701	-0.443726	
0.53009	-0.444031	
0.529175	-0.444031	
0.528259	-0.443726	
0.526733	-0.44342	
0.525208	-0.443115	
0.523682	-0.442505	
0.521851	-0.4422	
0.520325	-0.441589	
0.518799	-0.440979	
0.517578	-0.440369	
0.516663	-0.439758	
0.516052	-0.438843	
0.515442	-0.437927	
0.515442	-0.436707	
0.515747	-0.435791	
0.516052	-0.43457	
0.516663	-0.43335	
0.517883	-0.432129	
0.519409	-0.430908	
0.52124	-0.429993	
0.523376	-0.429077	
0.525513	-0.428467	
0.527344	-0.427856	
0.52887	-0.427246	
0.52948	-0.426941	
0.52948	-0.426636	
0.529175	-0.426636	
0.528564	-0.426636	
0.527954	-0.426636	
0.527344	-0.427246	
0.526428	-0.427551	
0.525513	-0.428162	
0.524597	-0.428772	
0.523376	-0.429382	
0.521851	-0.430298	
0.520325	-0.431213	
0.518799	-0.431824	
0.517578	-0.432739	
0.516663	-0.43335	
0.515747	-0.43396	
0.515442	-0.434265	
0.514832	-0.43457	
0.514221	-0.43457	
0.513306	-0.434265	
0.51239	-0.43396	
0.511475	-0.433655	
0.510254	-0.43335	
0.509338	-0.432739	
0.508423	-0.432434	
0.507813	-0.432129	
0.507202	-0.432129	
0.506592	-0.431824	
0.506592	-0.431824	
0.506897	-0.431824	
0.507507	-0.431824	
0.508423	-0.432129	
0.509644	-0.432129	
0.511169	-0.432434	
0.512695	-0.432739	
0.514526	-0.433044	
0.516663	-0.43335	
0.518799	-0.433655	
0.520935	-0.433655	
0.522766	-0.433655	
0.524597	-0.433655	
0.525818	-0.433044	
0.526428	-0.432739	
0.526733	-0.431824	
0.526428	-0.430908	
0.525513	-0.429993	
0.524292	-0.428772	
0.522461	-0.427856	
0.520935	-0.426941	
0.518799	-0.426025	
0.516968	-0.425415	
0.514832	-0.424805	
0.513	-0.4245	
0.511475	-0.424194	
0.509949	-0.423889	
0.508728	-0.423889	
0.507507	-0.423889	
0.506592	-0.423889	
0.505981	-0.423889	
0.505371	-0.423889	
0.504761	-0.424194	
0.504761	-0.4245	
0.504761	-0.4245	
0.505066	-0.424805	
0.505371	-0.42511	
0.505981	-0.425415	
0.506897	-0.42572	
0.507507	-0.42572	
0.508728	-0.426025	
0.509644	-0.426025	
0.510559	-0.426331	
0.511475	-0.426636	
0.51239	-0.426941	
0.513306	-0.427246	
0.514221	-0.427551	
0.515137	-0.428162	
0.516052	-0.428467	
0.517273	-0.429077	
0.517883	-0.429382	
0.518494	-0.429688	
0.519104	-0.429993	
0.519714	-0.430298	
0.52002	-0.430298	
0.52002	-0.430298	
0.519714	-0.430298	
0.518799	-0.429688	
0.517578	-0.429077	
0.516357	-0.428162	
0.514832	-0.427246	
0.513	-0.426331	
0.511475	-0.42511	
0.509949	-0.424194	
0.508423	-0.423584	
0.506897	-0.422668	
0.505066	-0.422363	
0.50354	-0.421753	
0.502014	-0.421448	
0.500488	-0.421143	
0.499268	-0.421143	
0.497742	-0.421143	
0.496521	-0.421448	
0.495911	-0.421753	
0.495605	-0.422363	
0.4953	-0.422668	
0.4953	-0.423279	
0.495605	-0.423889	
0.496216	-0.4245	
0.497131	-0.424805	
0.498047	-0.42511	
0.499268	-0.425415	
0.500793	-0.42572	
0.502319	-0.42572	
0.503845	-0.42572	
0.505371	-0.42572	
0.506897	-0.42572	
0.508423	-0.426025	
0.509644	-0.426025	
0.510254	-0.426636	
0.510559	-0.427551	
0.510254	-0.428772	
0.509338	-0.430603	
0.507507	-0.432739	
0.505066	-0.435486	
0.502014	-0.438843	
0.498352	-0.442505	
0.49408	-0.446777	
0.489197	-0.451355	
0.484009	-0.456238	
0.47821	-0.461426	
0.472412	-0.466919	
0.466614	-0.472717	
0.46051	-0.478516	
0.454712	-0.484314	
0.448914	-0.490417	
0.44342	-0.496521	
0.438232	-0.502319	
0.43335	-0.508118	
0.428772	-0.513611	
0.4245	-0.518799	
0.420532	-0.523987	
0.41687	-0.52887	
0.412903	-0.533447	
0.408936	-0.53772	
0.404968	-0.541992	
0.400696	-0.545654	
0.396118	-0.549011	
0.391846	-0.552063	
0.386963	-0.55481	
0.382385	-0.557251	
0.377502	-0.559082	
0.37262	-0.560608	
0.367737	-0.561829	
0.363159	-0.562744	
0.358887	-0.563049	
0.354614	-0.56366	
0.350342	-0.56366	
0.346375	-0.563965	
0.342712	-0.563965	
0.339661	-0.563965	
0.337219	-0.563965	
0.335083	-0.56427	
0.333557	-0.56427	
0.332031	-0.56488	
0.331116	-0.565491	
0.3302	-0.566406	
0.329285	-0.567322	
0.328674	-0.568848	
0.328064	-0.570374	
0.327759	-0.572205	
0.327759	-0.57373	
0.327759	-0.575256	
0.328064	-0.576782	
0.328369	-0.578308	
0.328674	-0.579224	
0.328674	-0.580444	
0.328979	-0.581055	
0.328979	-0.58136	
0.328674	-0.58136	
0.328369	-0.581055	
0.328064	-0.580444	
0.327148	-0.579224	
0.326233	-0.578003	
0.325317	-0.576172	
0.324097	-0.574341	
0.323181	-0.57251	
0.322266	-0.570679	
0.32135	-0.568848	
0.320435	-0.567322	
0.319824	-0.566101	
0.319519	-0.565186	
0.319519	-0.564575	
0.319824	-0.563965	
0.320435	-0.563965	
0.32135	-0.56427	
0.322266	-0.56488	
0.323792	-0.565796	
0.325012	-0.567322	
0.326843	-0.568848	
0.328369	-0.570374	
0.3302	-0.572205	
0.331726	-0.57373	
0.333252	-0.575256	
0.334473	-0.576782	
0.335388	-0.578003	
0.336304	-0.578918	
0.336609	-0.579529	
0.336609	-0.579834	
0.336304	-0.580139	
0.335693	-0.580139	
0.335083	-0.580139	
0.334167	-0.579834	
0.333252	-0.579224	
0.332336	-0.578613	
0.331421	-0.578003	
0.330505	-0.577087	
0.329285	-0.576172	
0.327759	-0.575256	
0.326538	-0.574341	
0.325317	-0.573425	
0.324097	-0.572815	
0.323181	-0.571899	
0.32196	-0.571289	
0.321045	-0.570679	
0.320129	-0.570068	
0.319519	-0.569763	
0.319214	-0.569458	
0.319214	-0.569153	
0.318909	-0.568542	
0.318909	-0.568237	
0.318604	-0.567932	
0.318298	-0.567322	
0.317993	-0.567017	
0.317688	-0.566711	
0.317688	-0.566101	
0.317688	-0.565796	
0.317993	-0.565491	
0.318298	-0.565186	
0.318298	-0.565186	
0.318604	-0.565186	
0.318604	-0.565186	
0.318604	-0.56488	
0.318604	-0.56488	
0.318298	-0.56488	
0.318298	-0.56488	
0.318298	-0.56488	
0.317993	-0.565186	
0.317993	-0.565186	
0.317993	-0.565491	
0.318298	-0.566101	
0.318604	-0.566711	
0.318604	-0.567322	
0.319214	-0.567932	
0.319519	-0.568542	
0.319824	-0.569153	
0.320129	-0.569458	
0.320435	-0.569763	
0.32074	-0.570068	
0.32074	-0.570068	
0.321045	-0.569763	
0.321045	-0.569458	
0.321045	-0.569153	
0.321045	-0.568542	
0.32074	-0.567627	
0.32074	-0.567017	
0.320435	-0.566101	
0.320435	-0.565491	
0.320435	-0.564575	
0.32074	-0.563965	
0.32074	-0.563049	
0.320435	-0.562439	
0.320129	-0.561829	
0.319824	-0.561218	
0.319519	-0.560913	
0.319214	-0.560608	
0.318909	-0.560303	
0.318909	-0.560303	
0.318909	-0.560608	
0.318604	-0.560608	
0.318298	-0.560913	
0.317993	-0.560913	
0.317383	-0.561218	
0.317078	-0.561523	
0.316467	-0.561523	
0.315857	-0.561523	
0.315247	-0.561829	
0.314331	-0.561829	
0.313721	-0.561523	
0.312805	-0.561523	
0.312195	-0.561218	
0.311279	-0.560608	
0.310059	-0.560303	
0.309143	-0.559387	
0.307617	-0.558777	
0.306396	-0.557861	
0.304871	-0.556946	
0.30304	-0.55603	
0.301514	-0.555115	
0.299988	-0.554199	
0.298462	-0.553284	
0.297546	-0.552368	
0.296631	-0.551453	
0.296021	-0.550842	
0.295715	-0.550537	
0.296021	-0.550232	
0.296326	-0.550232	
0.297241	-0.550537	
0.298157	-0.550842	
0.299072	-0.551147	
0.300293	-0.551758	
0.301208	-0.552673	
0.301819	-0.553589	
0.302429	-0.554504	
0.30304	-0.55542	
0.303955	-0.556335	
0.304871	-0.557251	
0.305786	-0.557861	
0.306091	-0.558167	
0.306396	-0.558472	
0.305786	-0.558167	
0.305176	-0.558167	
0.303955	-0.557861	
0.302429	-0.557556	
0.301208	-0.556946	
0.299988	-0.556335	
0.299072	-0.555725	
0.298462	-0.555115	
0.297852	-0.554504	
0.297852	-0.553894	
0.298157	-0.553284	
0.298767	-0.552979	
0.299683	-0.552673	
0.300903	-0.552673	
0.302124	-0.552979	
0.30365	-0.553284	
0.305176	-0.553589	
0.306702	-0.553894	
0.308228	-0.554199	
0.309753	-0.55481	
0.310974	-0.55481	
0.312195	-0.555115	
0.31311	-0.55542	
0.313721	-0.55542	
0.314331	-0.555115	
0.314331	-0.555115	
0.314026	-0.55481	
0.313416	-0.554504	
0.312805	-0.553894	
0.31189	-0.553284	
0.310974	-0.552673	
0.310059	-0.551758	
0.309448	-0.551147	
0.308838	-0.550537	
0.308533	-0.549927	
0.308228	-0.549622	
0.308533	-0.549011	
0.308838	-0.548706	
0.309448	-0.548706	
0.310364	-0.548706	
0.311584	-0.548706	
0.312805	-0.549011	
0.314331	-0.549011	
0.315552	-0.549316	
0.316467	-0.549316	
0.317383	-0.549316	
0.318298	-0.549316	
0.318909	-0.549316	
0.319214	-0.549011	
0.319214	-0.548706	
0.318909	-0.548096	
0.318298	-0.547791	
0.317688	-0.547485	
0.316772	-0.54718	
0.315857	-0.546875	
0.314636	-0.54657	
0.313721	-0.546265	
0.312805	-0.545959	
0.311584	-0.545959	
0.310974	-0.545959	
0.310364	-0.545959	
0.310059	-0.546265	
0.309753	-0.546875	
0.310059	-0.54718	
0.310059	-0.547791	
0.310364	-0.548401	
0.310974	-0.549011	
0.311279	-0.549622	
0.31189	-0.550232	
0.312195	-0.550537	
0.3125	-0.550842	
0.312805	-0.551147	
0.31311	-0.550842	
0.312805	-0.550537	
0.3125	-0.550232	
0.31189	-0.549622	
0.311279	-0.549011	
0.310669	-0.548401	
0.310059	-0.547485	
0.309448	-0.546875	
0.308533	-0.546265	
0.307617	-0.545349	
0.306396	-0.544739	
0.304871	-0.543823	
0.30365	-0.543213	
0.302429	-0.542297	
0.301208	-0.541687	
0.300293	-0.541077	
0.299683	-0.540771	
0.299072	-0.540161	
0.298767	-0.539246	
0.298462	-0.538635	
0.297852	-0.53772	
0.297852	-0.536804	
0.297546	-0.536194	
0.297546	-0.535278	
0.297546	-0.534668	
0.297546	-0.533752	
0.297852	-0.533142	
0.297852	-0.532532	
0.298157	-0.531921	
0.298157	-0.531616	
0.298462	-0.531311	
0.298767	-0.531311	
0.299072	-0.531311	
0.299377	-0.531616	
0.299377	-0.531921	
0.299377	-0.532532	
0.299377	-0.533142	
0.299377	-0.534058	
0.299377	-0.534973	
0.299377	-0.535889	
0.299683	-0.536804	
0.299683	-0.53772	
0.299988	-0.538635	
0.299683	-0.539246	
0.299377	-0.539856	
0.298767	-0.540161	
0.297546	-0.540466	
0.296631	-0.540161	
0.29541	-0.539856	
0.294495	-0.539551	
0.293274	-0.538635	
0.292053	-0.53772	
0.290833	-0.536804	
0.289612	-0.535889	
0.288696	-0.534668	
0.287476	-0.533752	
0.286255	-0.532532	
0.285339	-0.531616	
0.284424	-0.530396	
0.283813	-0.529175	
0.283203	-0.528259	
0.283203	-0.527039	
0.283203	-0.525818	
0.283813	-0.525208	
0.284119	-0.524292	
0.284729	-0.523682	
0.285339	-0.523376	
0.28595	-0.523071	
0.28656	-0.523071	
0.286865	-0.523071	
0.286865	-0.523071	
0.286865	-0.523071	
0.286865	-0.523682	
0.28656	-0.524292	
0.286255	-0.524902	
0.286255	-0.526123	
0.286255	-0.527039	
0.28656	-0.528259	
0.286865	-0.52948	
0.287476	-0.530701	
0.288086	-0.531616	
0.288391	-0.532532	
0.289001	-0.533447	
0.289612	-0.534058	
0.290222	-0.534363	
0.290833	-0.534363	
0.291443	-0.534363	
0.292358	-0.534058	
0.293274	-0.533752	
0.294189	-0.532837	
0.2948	-0.532227	
0.295105	-0.531006	
0.295105	-0.53009	
0.2948	-0.528564	
0.294189	-0.527344	
0.293274	-0.526123	
0.292358	-0.524902	
0.291443	-0.523376	
0.290222	-0.522156	
0.289001	-0.52124	
0.287781	-0.52002	
0.28656	-0.519104	
0.285034	-0.518494	
0.283508	-0.517883	
0.281982	-0.517578	
0.280762	-0.517578	
0.279846	-0.517273	
0.278931	-0.517273	
0.27832	-0.516968	
0.277405	-0.516663	
0.2771	-0.516663	
0.276489	-0.516663	
0.275879	-0.516663	
0.275574	-0.516968	
0.275574	-0.516968	
0.275269	-0.517273	
0.275269	-0.517578	
0.275269	-0.517883	
0.275574	-0.518188	
0.275574	-0.518494	
0.275879	-0.518494	
0.276489	-0.518799	
0.276794	-0.519104	
0.277405	-0.519104	
0.27771	-0.519409	
0.27832	-0.519409	
0.278625	-0.519409	
0.278931	-0.519409	
0.279236	-0.519104	
0.279541	-0.518494	
0.279541	-0.517883	
0.279236	-0.517273	
0.278931	-0.516357	
0.278015	-0.515747	
0.2771	-0.514832	
0.275879	-0.513916	
0.274658	-0.513	
0.273743	-0.512085	
0.272827	-0.511169	
0.272217	-0.510254	
0.271606	-0.509644	
0.271301	-0.509033	
0.270996	-0.508728	
0.270691	-0.508423	
0.270691	-0.508423	
0.270996	-0.508423	
0.271606	-0.508728	
0.272217	-0.509033	
0.273132	-0.509644	
0.274048	-0.510254	
0.274963	-0.510864	
0.275879	-0.511475	
0.276489	-0.51239	
0.2771	-0.513	
0.277405	-0.513611	
0.27771	-0.514221	
0.278015	-0.514526	
0.278015	-0.514526	
0.27771	-0.514526	
0.277405	-0.514221	
0.276794	-0.513916	
0.275879	-0.513306	
0.275269	-0.512695	
0.274658	-0.512085	
0.274048	-0.511169	
0.273743	-0.510559	
0.273743	-0.509644	
0.274048	-0.508728	
0.274353	-0.508118	
0.274963	-0.507202	
0.275879	-0.506592	
0.276794	-0.505981	
0.27771	-0.505371	
0.278625	-0.504761	
0.279541	-0.504456	
0.280151	-0.504456	
0.280762	-0.504456	
0.280762	-0.504761	
0.281067	-0.505371	
0.281372	-0.505981	
0.281982	-0.506592	
0.282288	-0.507202	
0.282288	-0.507813	
0.282288	-0.508423	
0.282288	-0.509033	
0.281982	-0.509338	
0.281677	-0.509644	
0.281372	-0.510254	
0.280762	-0.510559	
0.280457	-0.510864	
0.279846	-0.510864	
0.279236	-0.510864	
0.278625	-0.510559	
0.278015	-0.509949	
0.27771	-0.509338	
0.277405	-0.508728	
0.2771	-0.508118	
0.276794	-0.507507	
0.276184	-0.506897	
0.275574	-0.506287	
0.274963	-0.505676	
0.274353	-0.504761	
0.274048	-0.503845	
0.273743	-0.503235	
0.273438	-0.502625	
0.273438	-0.502014	
0.273438	-0.501709	
0.273438	-0.501404	
0.273743	-0.501404	
0.274048	-0.501709	
0.274353	-0.502014	
0.274658	-0.502625	
0.274963	-0.50293	
0.275269	-0.50354	
0.275269	-0.50415	
0.275574	-0.504761	
0.275574	-0.505371	
0.275574	-0.506287	
0.275269	-0.507202	
0.274963	-0.508118	
0.274353	-0.509033	
0.273743	-0.509644	
0.273132	-0.510254	
0.272217	-0.510864	
0.271606	-0.511169	
0.270996	-0.511169	
0.270386	-0.511169	
0.269775	-0.510864	
0.269165	-0.510864	
0.268555	-0.510254	
0.26825	-0.509949	
0.267944	-0.509338	
0.267944	-0.508423	
0.267944	-0.507813	
0.26825	-0.506897	
0.268555	-0.505676	
0.26886	-0.504761	
0.26947	-0.503845	
0.270081	-0.50293	
0.270386	-0.502319	
0.270691	-0.501709	
0.270996	-0.501099	
0.270691	-0.500488	
0.270386	-0.500183	
0.270081	-0.499573	
0.269165	-0.498962	
0.268555	-0.498657	
0.267639	-0.498047	
0.266724	-0.497437	
0.265808	-0.497131	
0.265198	-0.496826	
0.264282	-0.496826	
0.263672	-0.497131	
0.263367	-0.497437	
0.263367	-0.498047	
0.263367	-0.498352	
0.263672	-0.498962	
0.264282	-0.499573	
0.265198	-0.500488	
0.266113	-0.501099	
0.267334	-0.501404	
0.268555	-0.502014	
0.270081	-0.502319	
0.271301	-0.50293	
0.272522	-0.50354	
0.273743	-0.50415	
0.274963	-0.505066	
0.275879	-0.505676	
0.276794	-0.506287	
0.277405	-0.506592	
0.278015	-0.506897	
0.278625	-0.506897	
0.278625	-0.506897	
0.278931	-0.506897	
0.278931	-0.506897	
0.278625	-0.506897	
0.27832	-0.506897	
0.278015	-0.506897	
0.27771	-0.507202	
0.277405	-0.507202	
0.276489	-0.507202	
0.275879	-0.507202	
0.274963	-0.506897	
0.273743	-0.506592	
0.272522	-0.506287	
0.271301	-0.505676	
0.270081	-0.505066	
0.268555	-0.50415	
0.267334	-0.50354	
0.266113	-0.502625	
0.265198	-0.501709	
0.264282	-0.500488	
0.263367	-0.499268	
0.262756	-0.498047	
0.262451	-0.496826	
0.262451	-0.4953	
0.262756	-0.49408	
0.263062	-0.492859	
0.263062	-0.491943	
0.263367	-0.491333	
0.263672	-0.490723	
0.263977	-0.490417	
0.264587	-0.490112	
0.265198	-0.489807	
0.265503	-0.489502	
0.265808	-0.489197	
0.265808	-0.488892	
0.265808	-0.488586	
0.265198	-0.488586	
0.264587	-0.488586	
0.263977	-0.488892	
0.263367	-0.489197	
0.262756	-0.489502	
0.262146	-0.490112	
0.261841	-0.490723	
0.261536	-0.491333	
0.261536	-0.491943	
0.261841	-0.492859	
0.261841	-0.49408	
0.262146	-0.494995	
0.262756	-0.496216	
0.263062	-0.497437	
0.263367	-0.498657	
0.263672	-0.499878	
0.264282	-0.501099	
0.264587	-0.502014	
0.265198	-0.503235	
0.265808	-0.50415	
0.266418	-0.505066	
0.267029	-0.505676	
0.267639	-0.505981	
0.26825	-0.505676	
0.26886	-0.505371	
0.26947	-0.504761	
0.270386	-0.503845	
0.271301	-0.50293	
0.272522	-0.502014	
0.273743	-0.501099	
0.274963	-0.500183	
0.276184	-0.499268	
0.2771	-0.498657	
0.278015	-0.498352	
0.278625	-0.498047	
0.279541	-0.497742	
0.280151	-0.497437	
0.280457	-0.497131	
0.280762	-0.497131	
0.281067	-0.497131	
0.281067	-0.497437	
0.280762	-0.497437	
0.280151	-0.497742	
0.278931	-0.497742	
0.277405	-0.498047	
0.275574	-0.498352	
0.273743	-0.498962	
0.272217	-0.499268	
0.270691	-0.499573	
0.26947	-0.499573	
0.26825	-0.499573	
0.267029	-0.499573	
0.266113	-0.499573	
0.265198	-0.499268	
0.264587	-0.499268	
0.263977	-0.498962	
0.263672	-0.498657	
0.263672	-0.498352	
0.263672	-0.498047	
0.264282	-0.497437	
0.264893	-0.496826	
0.265503	-0.496216	
0.266418	-0.4953	
0.267334	-0.49469	
0.267944	-0.493774	
0.26886	-0.492859	
0.26947	-0.491943	
0.270081	-0.491028	
0.270691	-0.490112	
0.270996	-0.489502	
0.271606	-0.489197	
0.271912	-0.488892	
0.272217	-0.488586	
0.272217	-0.488586	
0.272522	-0.488586	
0.272522	-0.488892	
0.272522	-0.489197	
0.272827	-0.489502	
0.272827	-0.489807	
0.273132	-0.490112	
0.273132	-0.490417	
0.273438	-0.490723	
0.273438	-0.490723	
0.273438	-0.491028	
0.273743	-0.491028	
0.273743	-0.490723	
0.273743	-0.490723	
0.273743	-0.490417	
0.273438	-0.490112	
0.273132	-0.489807	
0.272827	-0.489502	
0.272217	-0.488892	
0.271606	-0.488586	
0.270691	-0.488586	
0.269775	-0.488281	
0.269165	-0.488281	
0.26825	-0.488281	
0.267334	-0.487976	
0.266724	-0.487976	
0.265808	-0.487976	
0.265198	-0.487976	
0.264587	-0.487976	
0.264282	-0.487976	
0.264282	-0.487976	
0.264587	-0.487976	
0.264587	-0.487976	
0.264893	-0.488281	
0.265198	-0.488281	
0.265198	-0.488281	
0.265198	-0.487976	
0.264893	-0.487671	
0.264587	-0.487366	
0.263977	-0.486755	
0.262756	-0.48645	
0.261536	-0.48584	
0.259705	-0.484924	
0.257263	-0.484314	
0.254517	-0.483093	
0.250854	-0.481873	
0.246887	-0.480347	
0.242004	-0.478821	
0.236511	-0.476685	
0.230713	-0.474243	
0.223999	-0.471802	
0.217285	-0.46875	
0.210266	-0.465393	
0.203247	-0.461731	
0.195923	-0.458069	
0.188599	-0.454102	
0.18158	-0.449829	
0.174561	-0.445557	
0.167542	-0.441284	
0.161133	-0.436707	
0.155029	-0.432129	
0.149231	-0.427551	
0.143738	-0.422974	
0.13855	-0.418091	
0.133667	-0.413513	
0.129089	-0.408936	
0.124817	-0.404663	
0.121155	-0.400085	
0.117493	-0.396118	
0.114136	-0.391846	
0.110779	-0.388184	
0.107727	-0.384216	
0.10437	-0.380859	
0.101318	-0.377502	
0.0982666	-0.374756	
0.0952148	-0.372009	
0.0921631	-0.369873	
0.0891113	-0.368042	
0.0863647	-0.366211	
0.0836182	-0.36499	
0.0808716	-0.36377	
0.078125	-0.362549	
0.0750732	-0.361938	
0.0723267	-0.361328	
0.0695801	-0.360718	
0.0665283	-0.360413	
0.0637817	-0.360107	
0.0610352	-0.359802	
0.0582886	-0.359497	
0.0558472	-0.358887	
0.0537109	-0.358276	
0.0521851	-0.357666	
0.0506592	-0.35675	
0.0497437	-0.355835	
0.0488281	-0.354614	
0.0485229	-0.353394	
0.0485229	-0.352478	
0.0494385	-0.351257	
0.0506592	-0.350037	
0.0521851	-0.349121	
0.0543213	-0.348206	
0.0567627	-0.3479	
0.0595093	-0.347595	
0.0619507	-0.3479	
0.0646973	-0.348206	
0.0671387	-0.348816	
0.0695801	-0.349426	
0.0717163	-0.350342	
0.0732422	-0.351563	
0.0744629	-0.352478	
0.0750732	-0.353394	
0.0753784	-0.354614	
0.0753784	-0.35553	
0.0747681	-0.35614	
0.0738525	-0.35675	
0.0723267	-0.357361	
0.0708008	-0.357361	
0.0686646	-0.357361	
0.0665283	-0.357056	
0.0640869	-0.35675	
0.0616455	-0.35614	
0.0595093	-0.35553	
0.0576782	-0.354614	
0.0561523	-0.354004	
0.0549316	-0.353394	
0.0540161	-0.353088	
0.0537109	-0.352783	
0.0540161	-0.352478	
0.0546265	-0.352478	
0.0552368	-0.352783	
0.0561523	-0.352783	
0.0570679	-0.352783	
0.0579834	-0.352478	
0.0585938	-0.352478	
0.0588989	-0.352173	
0.0588989	-0.351563	
0.0582886	-0.350952	
0.0576782	-0.350342	
0.0561523	-0.349731	
0.0543213	-0.348816	
0.0515747	-0.348206	
0.0485229	-0.346985	
0.0448608	-0.346069	
0.0408936	-0.345154	
0.0360107	-0.343933	
0.0308228	-0.342712	
0.0256348	-0.341492	
0.0198364	-0.340576	
0.0146484	-0.339355	
0.00946045	-0.33844	
0.00457764	-0.33783	
0.000610352	-0.336914	
-0.00305176	-0.336304	
-0.00610352	-0.335693	
-0.00854492	-0.335083	
-0.0106812	-0.334778	
-0.0125122	-0.334167	
-0.0143433	-0.333557	
-0.0161743	-0.332947	
-0.017395	-0.332336	
-0.0180054	-0.331421	
-0.0186157	-0.330505	
-0.0192261	-0.329895	
-0.0201416	-0.328979	
-0.0210571	-0.328369	
-0.0222778	-0.327454	
-0.0241089	-0.326843	
-0.0259399	-0.325928	
-0.0280762	-0.324707	
-0.0302124	-0.323792	
-0.0326538	-0.322266	
-0.0354004	-0.321045	
-0.038147	-0.319519	
-0.0411987	-0.317993	
-0.0439453	-0.316162	
-0.0469971	-0.314636	
-0.0494385	-0.313416	
-0.0521851	-0.31189	
-0.0549316	-0.310669	
-0.057373	-0.309753	
-0.0595093	-0.308533	
-0.0616455	-0.307617	
-0.0634766	-0.307007	
-0.0646973	-0.306702	
-0.065918	-0.306396	
-0.0665283	-0.306396	
-0.0671387	-0.306702	
-0.0674438	-0.306702	
-0.0674438	-0.307007	
-0.0674438	-0.306702	
-0.0671387	-0.306702	
-0.0671387	-0.306396	
-0.0665283	-0.306091	
-0.0662231	-0.305786	
-0.0653076	-0.305481	
-0.0643921	-0.305176	
-0.0631714	-0.304565	
-0.0616455	-0.30426	
-0.0598145	-0.30365	
-0.0579834	-0.303345	
-0.0558472	-0.303345	
-0.0537109	-0.30304	
-0.0512695	-0.30304	
-0.0488281	-0.303345	
-0.0463867	-0.30365	
-0.0439453	-0.303955	
-0.0418091	-0.304871	
-0.0396729	-0.305786	
-0.0375366	-0.306702	
-0.0357056	-0.307922	
-0.0341797	-0.308838	
-0.0332642	-0.310059	
-0.0323486	-0.310974	
-0.0320435	-0.311584	
-0.0323486	-0.312195	
-0.0326538	-0.312805	
-0.0332642	-0.31311	
-0.0341797	-0.313416	
-0.0350952	-0.313416	
-0.0363159	-0.313721	
-0.0375366	-0.313721	
-0.0384521	-0.313721	
-0.0393677	-0.313721	
-0.039978	-0.313721	
-0.0402832	-0.314026	
-0.039978	-0.314026	
-0.0393677	-0.314026	
-0.0384521	-0.314026	
-0.0372314	-0.313721	
-0.0357056	-0.313721	
-0.0338745	-0.313721	
-0.0323486	-0.313721	
-0.0308228	-0.313721	
-0.0292969	-0.313721	
-0.0283813	-0.313416	
-0.027771	-0.31311	
-0.0274658	-0.312805	
-0.0274658	-0.3125	
-0.0274658	-0.31189	
-0.027771	-0.311584	
-0.0280762	-0.311584	
-0.0289917	-0.311279	
-0.0299072	-0.311279	
-0.0314331	-0.311279	
-0.032959	-0.311279	
-0.0344849	-0.311584	
-0.0357056	-0.31189	
-0.0372314	-0.312195	
-0.038147	-0.3125	
-0.0390625	-0.312805	
-0.0396729	-0.31311	
-0.0402832	-0.313721	
-0.0402832	-0.314026	
-0.039978	-0.314636	
-0.0396729	-0.314941	
-0.0393677	-0.315247	
-0.0387573	-0.315552	
-0.038147	-0.315552	
-0.0375366	-0.315552	
-0.0372314	-0.315247	
-0.0366211	-0.314941	
-0.0363159	-0.314636	
-0.0357056	-0.314331	
-0.0354004	-0.314026	
-0.03479	-0.313721	
-0.0344849	-0.313721	
-0.0344849	-0.313721	
-0.0344849	-0.313721	
-0.0350952	-0.314026	
-0.0360107	-0.314026	
-0.0372314	-0.314026	
-0.0387573	-0.314026	
-0.0408936	-0.314026	
-0.043335	-0.313721	
-0.0457764	-0.31311	
-0.0488281	-0.312195	
-0.0521851	-0.310974	
-0.0558472	-0.309448	
-0.0604248	-0.307312	
-0.0650024	-0.304871	
-0.0698853	-0.301819	
-0.0750732	-0.298767	
-0.0799561	-0.295105	
-0.085144	-0.291138	
-0.0900269	-0.28656	
-0.0946045	-0.281982	
-0.0994873	-0.276794	
-0.104065	-0.271606	
-0.108337	-0.266418	
-0.112915	-0.26123	
-0.117188	-0.256042	
-0.121155	-0.25116	
-0.125122	-0.246582	
-0.129089	-0.24231	
-0.133057	-0.238342	
-0.137024	-0.234985	
-0.140686	-0.231323	
-0.144348	-0.227966	
-0.1474	-0.224915	
-0.150452	-0.221558	
-0.153198	-0.218811	
-0.15625	-0.215759	
-0.158997	-0.213318	
-0.161743	-0.210876	
-0.164185	-0.208435	
-0.166626	-0.206299	
-0.168762	-0.204163	
-0.170288	-0.202332	
-0.171814	-0.200195	
-0.172729	-0.198364	
-0.173645	-0.196533	
-0.17395	-0.195007	
-0.174255	-0.193787	
-0.174255	-0.192566	
-0.174255	-0.19165	
-0.174561	-0.19104	
-0.174561	-0.190735	
-0.174866	-0.190735	
-0.174866	-0.19043	
-0.174866	-0.19043	
-0.174866	-0.19043	
-0.174866	-0.19043	
-0.174866	-0.190735	
-0.174866	-0.19104	
-0.175171	-0.191345	
-0.175781	-0.191956	
-0.176392	-0.192566	
-0.177307	-0.193176	
-0.178223	-0.193787	
-0.179138	-0.194397	
-0.180054	-0.195007	
-0.181274	-0.195618	
-0.18219	-0.196228	
-0.183105	-0.196838	
-0.184021	-0.197449	
-0.184631	-0.198059	
-0.184937	-0.198669	
-0.184937	-0.198975	
-0.184937	-0.19928	
-0.184326	-0.199585	
-0.183716	-0.199585	
-0.182495	-0.19989	
-0.181274	-0.19989	
-0.179749	-0.200195	
-0.178223	-0.2005	
-0.176392	-0.201111	
-0.174255	-0.201416	
-0.172119	-0.202026	
-0.169983	-0.202332	
-0.168152	-0.202637	
-0.166321	-0.203247	
-0.164795	-0.203552	
-0.163574	-0.203857	
-0.162659	-0.204468	
-0.161743	-0.204773	
-0.161133	-0.205078	
-0.161133	-0.205383	
-0.161743	-0.205078	
-0.162659	-0.205078	
-0.164185	-0.204468	
-0.166016	-0.203857	
-0.168152	-0.203247	
-0.170288	-0.202026	
-0.173035	-0.200806	
-0.176086	-0.198975	
-0.179138	-0.196838	
-0.18219	-0.194702	
-0.185547	-0.191956	
-0.188599	-0.189209	
-0.191956	-0.186462	
-0.195313	-0.183105	
-0.198364	-0.179749	
-0.201416	-0.176086	
-0.204163	-0.172424	
-0.206299	-0.168762	
-0.208435	-0.164795	
-0.210266	-0.160828	
-0.211487	-0.15686	
-0.212708	-0.152588	
-0.213318	-0.148315	
-0.213623	-0.143433	
-0.213318	-0.138855	
-0.213318	-0.133667	
-0.213318	-0.128784	
-0.213318	-0.123901	
-0.213318	-0.119019	
-0.213623	-0.114136	
-0.214233	-0.109558	
-0.214233	-0.104675	
-0.214539	-0.100098	
-0.215149	-0.09552	
-0.215454	-0.0909424	
-0.216064	-0.0866699	
-0.216675	-0.0823975	
-0.217285	-0.0784302	
-0.217896	-0.0750732	
-0.218201	-0.0720215	
-0.218506	-0.0692749	
-0.218811	-0.0674438	
-0.218811	-0.065918	
-0.219116	-0.0646973	
-0.219116	-0.0640869	
-0.219116	-0.0637817	
-0.218811	-0.0640869	
-0.218201	-0.0646973	
-0.21759	-0.0653076	
-0.21698	-0.0665283	
-0.216675	-0.067749	
-0.216064	-0.0692749	
-0.215759	-0.0708008	
-0.215454	-0.0720215	
-0.215149	-0.0735474	
-0.215149	-0.0747681	
-0.215149	-0.0759888	
-0.215454	-0.0769043	
-0.215454	-0.0778198	
-0.215454	-0.0784302	
-0.215454	-0.0784302	
-0.215454	-0.0784302	
-0.215454	-0.078125	
-0.215149	-0.0775146	
-0.215149	-0.0762939	
-0.214539	-0.0753784	
-0.213928	-0.0741577	
-0.213318	-0.0732422	
-0.212708	-0.0726318	
-0.212097	-0.0720215	
-0.211487	-0.0717163	
-0.210571	-0.0717163	
-0.209961	-0.0717163	
-0.209656	-0.0720215	
-0.209045	-0.0723267	
-0.208435	-0.0732422	
-0.20813	-0.0741577	
-0.207214	-0.0753784	
-0.206604	-0.0765991	
-0.205688	-0.0784302	
-0.205078	-0.0799561	
-0.204163	-0.0814819	
-0.203552	-0.0830078	
-0.202637	-0.0842285	
-0.201721	-0.0854492	
-0.200806	-0.0860596	
-0.200195	-0.0866699	
-0.19989	-0.0866699	
-0.19989	-0.0866699	
-0.19989	-0.0863647	
-0.2005	-0.0857544	
-0.200806	-0.085144	
-0.201721	-0.0845337	
-0.202332	-0.0842285	
-0.202942	-0.0836182	
-0.203857	-0.083313	
-0.204773	-0.0830078	
-0.205688	-0.0830078	
-0.206909	-0.083313	
-0.207825	-0.0836182	
-0.209045	-0.0842285	
-0.209656	-0.085144	
-0.210266	-0.0860596	
-0.210571	-0.0869751	
-0.210571	-0.0881958	
-0.209961	-0.0894165	
-0.209351	-0.090332	
-0.208435	-0.0912476	
-0.20752	-0.0921631	
-0.206604	-0.0927734	
-0.205688	-0.0930786	
-0.205383	-0.0933838	
-0.205688	-0.0930786	
-0.206299	-0.0927734	
-0.207214	-0.0921631	
-0.208435	-0.0912476	
-0.209961	-0.0900269	
-0.211487	-0.0881958	
-0.213013	-0.0860596	
-0.214844	-0.083313	
-0.216675	-0.0805664	
-0.218506	-0.0775146	
-0.220337	-0.0744629	
-0.222168	-0.0708008	
-0.223694	-0.0671387	
-0.224915	-0.0628662	
-0.226135	-0.0582886	
-0.227051	-0.0534058	
-0.227661	-0.0482178	
-0.227966	-0.0430298	
-0.228271	-0.0378418	
-0.228577	-0.032959	
-0.228577	-0.0283813	
-0.228271	-0.0241089	
-0.228271	-0.0201416	
-0.227966	-0.0161743	
-0.227356	-0.0125122	
-0.227051	-0.0088501	
-0.226746	-0.00579834	
-0.22644	-0.00274658	
-0.22644	-0.000305176	
-0.226135	0.00213623	
-0.226135	0.00396729	
-0.22583	0.00549316	
-0.225525	0.00701904	
-0.224915	0.00823975	
-0.224609	0.00915527	
-0.223694	0.0100708	
-0.223083	0.0106812	
-0.222168	0.0109863	
-0.221558	0.0115967	
-0.220642	0.0119019	
-0.219727	0.012207	
-0.218811	0.012207	
-0.217896	0.012207	
-0.217285	0.0119019	
-0.21698	0.0115967	
-0.216675	0.0109863	
-0.21637	0.010376	
-0.21637	0.00976563	
-0.216064	0.0088501	
-0.21637	0.00793457	
-0.21637	0.00701904	
-0.216675	0.00610352	
-0.216675	0.00488281	
-0.21698	0.00396729	
-0.21698	0.00335693	
-0.217285	0.00244141	
-0.217285	0.00183105	
-0.217896	0.0012207	
-0.218506	0.000610352	
-0.219116	0.000305176	
-0.219421	0.000305176	
-0.219727	0.000305176	
-0.219727	0.000610352	
-0.219727	0.0012207	
-0.219727	0.00213623	
-0.219421	0.00305176	
-0.219421	0.00457764	
-0.219727	0.00579834	
-0.219727	0.00732422	
-0.219727	0.00854492	
-0.219727	0.0100708	
-0.219727	0.0112915	
-0.219727	0.0128174	
-0.219727	0.0137329	
-0.219421	0.0146484	
-0.219116	0.015564	
-0.219116	0.0158691	
-0.218811	0.0161743	
-0.218811	0.0158691	
-0.218506	0.015564	
-0.218201	0.0149536	
-0.217896	0.0137329	
-0.21759	0.0128174	
-0.21698	0.0115967	
-0.21637	0.0100708	
-0.215759	0.0088501	
-0.215149	0.00762939	
-0.214539	0.00671387	
-0.213623	0.00579834	
-0.213013	0.00488281	
-0.212402	0.00457764	
-0.212097	0.00427246	
-0.211792	0.00427246	
-0.211487	0.00457764	
-0.211487	0.00488281	
-0.211792	0.00549316	
-0.212402	0.00610352	
-0.213013	0.00671387	
-0.213623	0.00732422	
-0.214233	0.00823975	
-0.215149	0.00915527	
-0.215759	0.00976563	
-0.216064	0.0106812	
-0.216675	0.0109863	
-0.217285	0.0112915	
-0.217896	0.0112915	
-0.218506	0.0109863	
-0.218811	0.0106812	
-0.218811	0.0100708	
-0.218506	0.00946045	
-0.217896	0.00854492	
-0.217285	0.00732422	
-0.21637	0.00610352	
-0.215149	0.00457764	
-0.213928	0.00305176	
-0.212708	0.00152588	
-0.211182	0	
-0.209656	-0.00152588	
-0.208435	-0.00274658	
-0.207214	-0.00366211	
-0.205994	-0.00427246	
-0.204773	-0.00488281	
-0.203857	-0.00518799	
-0.202942	-0.00549316	
-0.202332	-0.00579834	
-0.202026	-0.00549316	
-0.202026	-0.00549316	
-0.202026	-0.00518799	
-0.202332	-0.00457764	
-0.202942	-0.00396729	
-0.203552	-0.00335693	
-0.204163	-0.00244141	
-0.204773	-0.00183105	
-0.205688	-0.0012207	
-0.206604	-0.000610352	
-0.20752	0	
-0.20874	0.000610352	
-0.209656	0.00152588	
-0.210571	0.00213623	
-0.211182	0.00305176	
-0.211487	0.00366211	
-0.211792	0.00427246	
-0.211792	0.00488281	
-0.211792	0.00549316	
-0.211182	0.00610352	
-0.210571	0.00640869	
-0.209656	0.00671387	
-0.208435	0.00701904	
-0.206909	0.00732422	
-0.205383	0.00732422	
-0.203552	0.00732422	
-0.201721	0.00701904	
-0.19989	0.00640869	
-0.198059	0.00579834	
-0.196533	0.00518799	
-0.195313	0.00427246	
-0.194092	0.00305176	
-0.192871	0.00183105	
-0.191956	0.000610352	
-0.19104	-0.000610352	
-0.19043	-0.00183105	
-0.190125	-0.00274658	
-0.189819	-0.00396729	
-0.189819	-0.00457764	
-0.190125	-0.00549316	
-0.190125	-0.00610352	
-0.19043	-0.00671387	
-0.19104	-0.00732422	
-0.19165	-0.00793457	
-0.192261	-0.00823975	
-0.193176	-0.0088501	
-0.194092	-0.0088501	
-0.195007	-0.00915527	
-0.195923	-0.00915527	
-0.196838	-0.0088501	
-0.197449	-0.00854492	
-0.198364	-0.00793457	
-0.198975	-0.00732422	
-0.19989	-0.00671387	
-0.2005	-0.00579834	
-0.201111	-0.00518799	
-0.201721	-0.00427246	
-0.202332	-0.00396729	
-0.202942	-0.00335693	
-0.203247	-0.00335693	
-0.203247	-0.00305176	
-0.203247	-0.00335693	
-0.202942	-0.00366211	
-0.202637	-0.00396729	
-0.202026	-0.00457764	
-0.201416	-0.00549316	
-0.2005	-0.00640869	
-0.19989	-0.00701904	
-0.19928	-0.00793457	
-0.198975	-0.0088501	
-0.198669	-0.00976563	
-0.198669	-0.010376	
-0.198364	-0.0109863	
-0.198059	-0.0109863	
-0.197754	-0.0112915	
-0.197144	-0.0109863	
-0.196838	-0.0106812	
-0.196228	-0.010376	
-0.195923	-0.00976563	
-0.195313	-0.00915527	
-0.194702	-0.00854492	
-0.193787	-0.00762939	
-0.193176	-0.00701904	
-0.192261	-0.00640869	
-0.19165	-0.00579834	
-0.19104	-0.00549316	
-0.19043	-0.00549316	
-0.190125	-0.00579834	
-0.190125	-0.00610352	
-0.189819	-0.00671387	
-0.189819	-0.00732422	
-0.189514	-0.00823975	
-0.188904	-0.00915527	
-0.188599	-0.0100708	
-0.187988	-0.0106812	
-0.187683	-0.0115967	
-0.187073	-0.0125122	
-0.186462	-0.0131226	
-0.185547	-0.0137329	
-0.184937	-0.0146484	
-0.184021	-0.0149536	
-0.183105	-0.015564	
-0.18219	-0.0158691	
-0.18158	-0.0161743	
-0.180969	-0.0161743	
-0.180664	-0.0164795	
-0.180664	-0.0164795	
-0.180664	-0.0164795	
-0.180969	-0.0161743	
-0.181274	-0.0161743	
-0.18158	-0.0158691	
-0.18219	-0.015564	
-0.1828	-0.0152588	
-0.183411	-0.0149536	
-0.184326	-0.0143433	
-0.185242	-0.0137329	
-0.186157	-0.0128174	
-0.187073	-0.0119019	
-0.187988	-0.0106812	
-0.188904	-0.00915527	
-0.189514	-0.00762939	
-0.190125	-0.00579834	
-0.190125	-0.00396729	
-0.190125	-0.00183105	
-0.190125	0.000610352	
-0.189819	0.00335693	
-0.189819	0.00640869	
-0.189209	0.00976563	
-0.188599	0.0137329	
-0.187683	0.0180054	
-0.186462	0.022583	
-0.184631	0.0274658	
-0.182495	0.032959	
-0.180359	0.0384521	
-0.177612	0.0439453	
-0.174866	0.0497437	
-0.171814	0.055542	
-0.168457	0.0613403	
-0.1651	0.0674438	
-0.161438	0.0738525	
-0.157776	0.0802612	
-0.153809	0.0866699	
-0.149841	0.0930786	
-0.145874	0.0994873	
-0.141907	0.105896	
-0.13855	0.112	
-0.135193	0.117798	
-0.131836	0.123596	
-0.129089	0.128784	
-0.126343	0.133972	
-0.123291	0.13855	
-0.120544	0.142822	
-0.117798	0.14679	
-0.114746	0.150452	
-0.111694	0.153503	
-0.108948	0.156555	
-0.105896	0.158997	
-0.102539	0.160828	
-0.0994873	0.162659	
-0.0961304	0.163879	
-0.0930786	0.16449	
-0.0897217	0.1651	
-0.0866699	0.1651	
-0.0836182	0.1651	
-0.0805664	0.16449	
-0.0778198	0.163879	
-0.0747681	0.162964	
-0.0723267	0.162048	
-0.0701904	0.161133	
-0.0683594	0.159912	
-0.0671387	0.158997	
-0.065918	0.158081	
-0.0653076	0.157166	
-0.0650024	0.156555	
-0.0650024	0.15564	
-0.0656128	0.155029	
-0.0668335	0.154114	
-0.0680542	0.153503	
-0.0695801	0.152588	
-0.0714111	0.151978	
-0.072937	0.151062	
-0.0747681	0.150452	
-0.0769043	0.149841	
-0.0784302	0.149536	
-0.0799561	0.149231	
-0.0814819	0.148926	
-0.0823975	0.148926	
-0.083313	0.148621	
-0.0842285	0.148621	
-0.085144	0.148315	
-0.0854492	0.14801	
-0.0857544	0.14801	
-0.0854492	0.147705	
-0.0845337	0.1474	
-0.0836182	0.147095	
-0.0823975	0.14679	
-0.0811768	0.146484	
-0.0802612	0.146179	
-0.0790405	0.145569	
-0.078125	0.145264	
-0.0775146	0.144348	
-0.0765991	0.143738	
-0.0759888	0.143127	
-0.0753784	0.142212	
-0.0744629	0.141602	
-0.0738525	0.141296	
-0.0735474	0.140991	
-0.0732422	0.140686	
-0.0732422	0.140686	
-0.0738525	0.140991	
-0.0744629	0.141296	
-0.0753784	0.141602	
-0.0762939	0.142212	
-0.0775146	0.142822	
-0.0784302	0.143127	
-0.0796509	0.143738	
-0.0805664	0.143738	
-0.0814819	0.144043	
-0.0827026	0.143738	
-0.083313	0.143433	
-0.0839233	0.143127	
-0.0845337	0.142212	
-0.0848389	0.141296	
-0.0845337	0.140076	
-0.0845337	0.138855	
-0.0839233	0.137634	
-0.083313	0.136414	
-0.0830078	0.135193	
-0.0820923	0.134277	
-0.0814819	0.133362	
-0.0805664	0.132446	
-0.0793457	0.131836	
-0.0778198	0.131531	
-0.0765991	0.131226	
-0.0750732	0.13092	
-0.0738525	0.13092	
-0.0726318	0.131226	
-0.0717163	0.131226	
-0.0708008	0.131531	
-0.0698853	0.131531	
-0.0689697	0.131836	
-0.0680542	0.131836	
-0.0671387	0.132141	
-0.0665283	0.132141	
-0.0662231	0.131836	
-0.0662231	0.131836	
-0.0668335	0.131836	
-0.067749	0.131836	
-0.0692749	0.131836	
-0.071106	0.132141	
-0.0732422	0.132446	
-0.0753784	0.133057	
-0.0778198	0.133667	
-0.0805664	0.134277	
-0.083313	0.135193	
-0.0863647	0.136108	
-0.0891113	0.136719	
-0.0918579	0.137634	
-0.0946045	0.13855	
-0.0967407	0.139465	
-0.0985718	0.140381	
-0.100098	0.140991	
-0.101013	0.141602	
-0.101624	0.141907	
-0.101624	0.142212	
-0.101318	0.141907	
-0.100708	0.141296	
-0.0994873	0.140686	
-0.0982666	0.139771	
-0.0970459	0.138855	
-0.0952148	0.137634	
-0.093689	0.136414	
-0.0918579	0.134888	
-0.0900269	0.133667	
-0.0881958	0.132141	
-0.0863647	0.130615	
-0.0848389	0.129089	
-0.083313	0.127258	
-0.0820923	0.125427	
-0.0814819	0.123596	
-0.0805664	0.121765	
-0.0799561	0.120239	
-0.0793457	0.118408	
-0.0787354	0.116882	
-0.078125	0.115662	
-0.0772095	0.114441	
-0.0765991	0.11322	
-0.0756836	0.112305	
-0.0747681	0.111389	
-0.0738525	0.110779	
-0.072937	0.110474	
-0.0720215	0.110168	
-0.0708008	0.110168	
-0.0695801	0.110168	
-0.0680542	0.110474	
-0.0668335	0.111084	
-0.0653076	0.111389	
-0.0640869	0.112305	
-0.0628662	0.11322	
-0.0622559	0.113831	
-0.0619507	0.114746	
-0.0616455	0.115356	
-0.0613403	0.116272	
-0.0616455	0.116577	
-0.0619507	0.116882	
-0.062561	0.117188	
-0.0634766	0.117188	
-0.0646973	0.116882	
-0.065918	0.116882	
-0.0671387	0.116272	
-0.0683594	0.115967	
-0.0695801	0.115356	
-0.0701904	0.114746	
-0.0708008	0.114441	
-0.0714111	0.114136	
-0.0714111	0.113831	
-0.071106	0.113525	
-0.0708008	0.11322	
-0.0704956	0.11322	
-0.0698853	0.112915	
-0.0692749	0.11261	
-0.0686646	0.11261	
-0.0680542	0.11261	
-0.067749	0.112915	
-0.0671387	0.112915	
-0.0668335	0.11322	
-0.0662231	0.11322	
-0.065918	0.113525	
-0.0656128	0.113525	
-0.0656128	0.11322	
-0.0656128	0.112915	
-0.0656128	0.11261	
-0.0653076	0.112	
-0.0653076	0.111694	
-0.0646973	0.111084	
-0.0643921	0.110779	
-0.0634766	0.110779	
-0.062561	0.111084	
-0.0616455	0.111084	
-0.06073	0.111694	
-0.0601196	0.112305	
-0.0595093	0.11322	
-0.0592041	0.114441	
-0.0588989	0.115662	
-0.0585938	0.117188	
-0.0582886	0.118408	
-0.0579834	0.119629	
-0.0579834	0.120544	
-0.0576782	0.12146	
-0.0576782	0.12207	
-0.0576782	0.12207	
-0.0576782	0.12207	
-0.0576782	0.121765	
-0.0576782	0.12085	
-0.0576782	0.119934	
-0.0576782	0.118713	
-0.0576782	0.117188	
-0.0576782	0.115662	
-0.057373	0.113831	
-0.0570679	0.112	
-0.057373	0.110474	
-0.0576782	0.108948	
-0.0582886	0.107727	
-0.0595093	0.107117	
-0.0613403	0.106506	
-0.0634766	0.106812	
-0.0656128	0.107422	
-0.0674438	0.108643	
-0.0686646	0.110474	
-0.0695801	0.112915	
-0.0701904	0.115662	
-0.0698853	0.118713	
-0.0692749	0.12207	
-0.067749	0.125732	
-0.0656128	0.1297	
-0.0628662	0.133667	
-0.0595093	0.137939	
-0.0552368	0.142517	
-0.0500488	0.147095	
-0.0445557	0.151978	
-0.0378418	0.156555	
-0.0308228	0.161133	
-0.0234985	0.16571	
-0.0161743	0.169983	
-0.0088501	0.17395	
-0.00183105	0.178223	
0.00488281	0.18219	
0.0109863	0.185852	
0.0161743	0.189514	
0.020752	0.193176	
0.0244141	0.196533	
0.0274658	0.200195	
0.0299072	0.203552	
0.0320435	0.206604	
0.0338745	0.209351	
0.0357056	0.212097	
0.0378418	0.214844	
0.0396729	0.217285	
0.0418091	0.219421	
0.0442505	0.221558	
0.0463867	0.223694	
0.0485229	0.22583	
0.0506592	0.227661	
0.0534058	0.229492	
0.0564575	0.231323	
0.0601196	0.232849	
0.0640869	0.23407	
0.0686646	0.234985	
0.0735474	0.235596	
0.0790405	0.236206	
0.0845337	0.236511	
0.0900269	0.236511	
0.0952148	0.236511	
0.100098	0.236206	
0.104675	0.235901	
0.108643	0.235291	
0.112	0.234375	
0.115051	0.233459	
0.117188	0.232544	
0.119019	0.231628	
0.120544	0.230713	
0.121155	0.229492	
0.121765	0.228577	
0.121765	0.227356	
0.12146	0.22644	
0.120544	0.22522	
0.119934	0.223999	
0.119019	0.222778	
0.118103	0.221863	
0.117188	0.221252	
0.116577	0.220642	
0.115662	0.220032	
0.115356	0.219421	
0.115051	0.219116	
0.115356	0.219116	
0.115662	0.218811	
0.116272	0.218811	
0.116577	0.218811	
0.116882	0.218811	
0.117188	0.219116	
0.117493	0.219421	
0.117493	0.219421	
0.117798	0.219727	
0.117798	0.219727	
0.117798	0.219421	
0.117493	0.219421	
0.117188	0.219116	
0.116577	0.219116	
0.115967	0.218811	
0.115662	0.218506	
0.115356	0.218201	
0.115051	0.217896	
0.115356	0.21759	
0.115662	0.217285	
0.116272	0.217285	
0.116882	0.217285	
0.117798	0.217285	
0.118408	0.21759	
0.119324	0.218201	
0.120239	0.218811	
0.12146	0.219727	
0.122681	0.220642	
0.123901	0.221558	
0.125122	0.222168	
0.126648	0.223083	
0.127563	0.223694	
0.128479	0.224304	
0.129089	0.224915	
0.1297	0.225525	
0.13031	0.22583	
0.130615	0.22583	
0.13092	0.22583	
0.13092	0.22583	
0.13092	0.22522	
0.130615	0.224609	
0.130005	0.223999	
0.129395	0.223083	
0.128479	0.222168	
0.127258	0.221252	
0.126038	0.220337	
0.124817	0.219727	
0.123596	0.219116	
0.12207	0.218506	
0.12085	0.217896	
0.119629	0.21759	
0.118713	0.217285	
0.117798	0.21698	
0.116882	0.21698	
0.116577	0.216675	
0.116272	0.216675	
0.115967	0.216675	
0.115967	0.216675	
0.115967	0.21698	
0.116272	0.21698	
0.116882	0.217285	
0.117798	0.21759	
0.119019	0.217896	
0.120544	0.217896	
0.12207	0.218201	
0.123596	0.218201	
0.125122	0.218201	
0.126648	0.218201	
0.127869	0.218201	
0.129089	0.217896	
0.13031	0.21759	
0.131531	0.21759	
0.132446	0.217285	
0.133667	0.21698	
0.134583	0.216675	
0.135498	0.216675	
0.136108	0.21637	
0.136414	0.21637	
0.136719	0.21637	
0.136414	0.216675	
0.136108	0.216675	
0.135498	0.21698	
0.134888	0.21759	
0.134277	0.217896	
0.133667	0.218506	
0.133057	0.219421	
0.132141	0.220337	
0.131531	0.221252	
0.13092	0.222168	
0.13031	0.223083	
0.130005	0.223694	
0.130005	0.224304	
0.130005	0.224609	
0.130005	0.224915	
0.13031	0.22522	
0.130615	0.22522	
0.13092	0.22522	
0.131226	0.224915	
0.131531	0.224609	
0.131226	0.224304	
0.131226	0.223694	
0.13092	0.223083	
0.13092	0.222778	
0.130615	0.222168	
0.130615	0.221558	
0.13031	0.220947	
0.13031	0.220642	
0.130005	0.220032	
0.1297	0.219727	
0.129395	0.219421	
0.129089	0.219421	
0.128784	0.219421	
0.128784	0.219421	
0.129089	0.219421	
0.1297	0.219421	
0.130615	0.219727	
0.131836	0.219727	
0.133057	0.219727	
0.134277	0.219727	
0.135803	0.219421	
0.137024	0.219421	
0.13855	0.219116	
0.139771	0.219116	
0.140686	0.218811	
0.141602	0.218811	
0.141907	0.218506	
0.141907	0.218506	
0.141602	0.218201	
0.140991	0.21759	
0.140686	0.217285	
0.139771	0.21698	
0.13916	0.216675	
0.13855	0.21637	
0.137939	0.216064	
0.137329	0.216064	
0.137024	0.21637	
0.136414	0.21637	
0.135803	0.216675	
0.135498	0.21698	
0.135498	0.217285	
0.135803	0.21759	
0.136414	0.218201	
0.137024	0.218506	
0.138245	0.218811	
0.13916	0.218811	
0.140381	0.219116	
0.141296	0.219116	
0.142212	0.219116	
0.142822	0.219421	
0.142822	0.219421	
0.142822	0.219421	
0.142212	0.219421	
0.141602	0.219421	
0.140686	0.219116	
0.139771	0.218811	
0.138855	0.218201	
0.137939	0.21759	
0.137024	0.21698	
0.136108	0.21637	
0.134888	0.215454	
0.133972	0.214844	
0.132751	0.213928	
0.131836	0.213318	
0.131226	0.212708	
0.13031	0.212402	
0.1297	0.211792	
0.129089	0.211182	
0.128784	0.210876	
0.128479	0.210571	
0.128479	0.210571	
0.128784	0.210571	
0.128784	0.210876	
0.129089	0.211182	
0.129395	0.211487	
0.1297	0.212097	
0.130005	0.212402	
0.130615	0.212708	
0.131226	0.213013	
0.132141	0.213623	
0.133057	0.213928	
0.133667	0.214233	
0.134583	0.214539	
0.135498	0.214844	
0.136414	0.214844	
0.137634	0.214844	
0.138855	0.214539	
0.140686	0.214233	
0.142212	0.213928	
0.143738	0.213623	
0.145264	0.213013	
0.146484	0.212708	
0.1474	0.212708	
0.14801	0.212402	
0.14801	0.212097	
0.14801	0.212097	
0.14801	0.212097	
0.14801	0.212708	
0.147705	0.213318	
0.1474	0.214233	
0.1474	0.215149	
0.14679	0.216064	
0.146179	0.21698	
0.144958	0.217896	
0.143433	0.219116	
0.141907	0.220032	
0.140381	0.220947	
0.13855	0.221558	
0.137024	0.222473	
0.135803	0.223083	
0.134583	0.223999	
0.133362	0.224304	
0.132446	0.224915	
0.131836	0.224915	
0.131531	0.224915	
0.131531	0.224609	
0.131836	0.224304	
0.131836	0.223999	
0.132141	0.223389	
0.132141	0.223389	
0.132141	0.223083	
0.132141	0.223083	
0.132141	0.223083	
0.132141	0.223389	
0.132141	0.223694	
0.132446	0.223999	
0.132446	0.224304	
0.132751	0.224915	
0.133057	0.225525	
0.133362	0.226135	
0.133972	0.226746	
0.134277	0.227356	
0.134583	0.227661	
0.134888	0.228271	
0.135193	0.228271	
0.135498	0.228577	
0.136108	0.228577	
0.137024	0.228882	
0.137939	0.228882	
0.13916	0.229187	
0.140381	0.229187	
0.141296	0.229492	
0.141907	0.229492	
0.142517	0.229492	
0.142822	0.229797	
0.142822	0.230103	
0.142822	0.230103	
0.142517	0.230408	
0.142212	0.231018	
0.141907	0.231323	
0.141296	0.231934	
0.140686	0.232544	
0.139771	0.233154	
0.13855	0.233459	
0.137634	0.233765	
0.137024	0.23407	
0.136414	0.23407	
0.136108	0.233765	
0.135803	0.233459	
0.135498	0.232849	
0.135498	0.232239	
0.135498	0.231934	
0.135803	0.231323	
0.136414	0.230408	
0.136719	0.229797	
0.137329	0.229187	
0.137939	0.228577	
0.138245	0.227966	
0.138855	0.227356	
0.139465	0.227051	
0.139771	0.227051	
0.140381	0.227051	
0.140686	0.227051	
0.140686	0.227356	
0.140686	0.227966	
0.140686	0.228577	
0.140381	0.229492	
0.140076	0.230408	
0.139771	0.231323	
0.139465	0.232239	
0.13916	0.233154	
0.13916	0.233765	
0.138855	0.234375	
0.138855	0.234985	
0.138855	0.234985	
0.138855	0.234985	
0.13916	0.234375	
0.139771	0.233765	
0.140686	0.233154	
0.141602	0.232544	
0.143127	0.231628	
0.144653	0.230713	
0.146179	0.229797	
0.147705	0.228882	
0.148926	0.228577	
0.149841	0.228271	
0.150757	0.227966	
0.151367	0.227661	
0.151672	0.227661	
0.151672	0.227356	
0.151672	0.227051	
0.151062	0.226746	
0.150146	0.22644	
0.149231	0.226135	
0.147705	0.22583	
0.146179	0.22583	
0.144348	0.225525	
0.142517	0.224915	
0.140686	0.224304	
0.13916	0.223389	
0.137939	0.222473	
0.137024	0.221558	
0.136719	0.220642	
0.136414	0.219727	
0.136414	0.218811	
0.137024	0.217896	
0.137939	0.217285	
0.139465	0.216675	
0.140991	0.216064	
0.142517	0.215759	
0.144348	0.215454	
0.145874	0.215149	
0.147705	0.215149	
0.148926	0.215149	
0.150146	0.215149	
0.151062	0.215149	
0.151672	0.215454	
0.151672	0.215454	
0.151672	0.215454	
0.151062	0.215454	
0.150146	0.215454	
0.148926	0.215454	
0.147705	0.215454	
0.146179	0.215454	
0.144653	0.215454	
0.143127	0.215759	
0.141907	0.216064	
0.140686	0.21637	
0.139465	0.21698	
0.13855	0.21759	
0.137939	0.218506	
0.137329	0.219421	
0.136719	0.220337	
0.136414	0.221252	
0.136414	0.222473	
0.136414	0.223694	
0.136719	0.224609	
0.137329	0.225525	
0.137634	0.22644	
0.137939	0.227051	
0.137939	0.227661	
0.137634	0.228271	
0.137634	0.228577	
0.137329	0.228882	
0.137024	0.229187	
0.137024	0.229492	
0.137024	0.229492	
0.137329	0.229492	
0.137634	0.229492	
0.137939	0.229187	
0.138855	0.228882	
0.140076	0.228577	
0.141296	0.228577	
0.142822	0.228271	
0.144653	0.227966	
0.146484	0.227966	
0.148926	0.227661	
0.151062	0.227661	
0.153198	0.227661	
0.155334	0.227356	
0.15686	0.227356	
0.158386	0.227051	
0.159302	0.226746	
0.159607	0.226135	
0.159912	0.22583	
0.159607	0.225525	
0.158997	0.22522	
0.157776	0.224915	
0.15625	0.224609	
0.154114	0.224304	
0.151672	0.223999	
0.149231	0.223694	
0.147095	0.223694	
0.145264	0.223389	
0.144043	0.223389	
0.143127	0.223694	
0.142517	0.223694	
0.142212	0.223999	
0.141907	0.224609	
0.142212	0.224915	
0.142517	0.225525	
0.143127	0.22583	
0.144043	0.22644	
0.144958	0.226746	
0.146179	0.227356	
0.147095	0.227661	
0.148315	0.227966	
0.149231	0.228271	
0.149841	0.228577	
0.150452	0.228882	
0.151367	0.228882	
0.152283	0.228882	
0.152893	0.228577	
0.153809	0.228271	
0.154724	0.227661	
0.15564	0.227051	
0.156555	0.226135	
0.157776	0.22522	
0.158997	0.223999	
0.159912	0.223083	
0.160522	0.222168	
0.160828	0.221558	
0.160828	0.220947	
0.160217	0.220337	
0.159302	0.219727	
0.157471	0.219116	
0.155334	0.218506	
0.152283	0.217896	
0.149231	0.21759	
0.145874	0.21759	
0.142517	0.21759	
0.139465	0.218201	
0.136719	0.218811	
0.133972	0.219421	
0.131836	0.220337	
0.13031	0.221252	
0.129395	0.221863	
0.129089	0.222778	
0.1297	0.223389	
0.131226	0.223999	
0.133362	0.224609	
0.136414	0.22522	
0.139465	0.22583	
0.143127	0.22644	
0.14679	0.227051	
0.150146	0.227356	
0.153503	0.227661	
0.15625	0.227966	
0.158386	0.228271	
0.159912	0.228271	
0.161133	0.228271	
0.161438	0.228271	
0.161438	0.227966	
0.160828	0.227966	
0.159912	0.227661	
0.158691	0.227051	
0.157471	0.226746	
0.155945	0.226135	
0.154724	0.22583	
0.153809	0.22522	
0.152893	0.224609	
0.152283	0.224304	
0.151978	0.223694	
0.151978	0.222778	
0.152588	0.222168	
0.153198	0.221558	
0.154114	0.220642	
0.155029	0.220032	
0.155945	0.219421	
0.15686	0.218811	
0.157471	0.218201	
0.158081	0.217896	
0.158691	0.21759	
0.158997	0.217285	
0.158997	0.21698	
0.158691	0.216675	
0.158386	0.21637	
0.157776	0.21637	
0.15686	0.216064	
0.155945	0.215759	
0.154724	0.215759	
0.153503	0.215759	
0.152588	0.215759	
0.151672	0.215759	
0.150757	0.216064	
0.150146	0.216064	
0.149536	0.21637	
0.148926	0.216675	
0.148315	0.216675	
0.14801	0.21698	
0.147705	0.21698	
0.1474	0.217285	
0.147095	0.217285	
0.14679	0.217285	
0.146484	0.21698	
0.145874	0.21698	
0.145874	0.216675	
0.145569	0.216675	
0.145569	0.21637	
0.145569	0.216064	
0.145569	0.215454	
0.145264	0.215149	
0.144958	0.214539	
0.144653	0.213928	
0.144348	0.213318	
0.144348	0.212708	
0.144958	0.212097	
0.145264	0.211792	
0.146179	0.211487	
0.147095	0.211487	
0.14801	0.211792	
0.148926	0.212097	
0.149841	0.212402	
0.150452	0.213013	
0.151062	0.213623	
0.151672	0.213928	
0.151978	0.214539	
0.151978	0.214844	
0.151672	0.215759	
0.151062	0.21637	
0.150146	0.217285	
0.148926	0.218201	
0.1474	0.218811	
0.145264	0.219116	
0.142822	0.219116	
0.140381	0.218506	
0.137939	0.21759	
0.135803	0.21637	
0.134277	0.214539	
0.133057	0.212097	
0.132141	0.209045	
0.131836	0.205688	
0.132141	0.201416	
0.133057	0.196838	
0.134583	0.191956	
0.136719	0.186462	
0.139465	0.180664	
0.142822	0.174561	
0.146484	0.168152	
0.150757	0.161438	
0.154724	0.154419	
0.158997	0.1474	
0.163269	0.140381	
0.167542	0.133362	
0.171509	0.126648	
0.175171	0.120544	
0.178833	0.114746	
0.181885	0.109558	
0.184326	0.10437	
0.186768	0.0997925	
0.189209	0.0952148	
0.191345	0.0909424	
0.194092	0.0869751	
0.196533	0.0830078	
0.19928	0.0796509	
0.201721	0.0762939	
0.204163	0.0735474	
0.206604	0.0708008	
0.209045	0.0680542	
0.211487	0.0656128	
0.213928	0.0634766	
0.216675	0.0613403	
0.219116	0.0595093	
0.221558	0.0576782	
0.223694	0.0558472	
0.22583	0.0543213	
0.227966	0.0527954	
0.229797	0.0512695	
0.231323	0.0500488	
0.232849	0.0488281	
0.234375	0.0479126	
0.235596	0.0469971	
0.236816	0.0463867	
0.238037	0.0457764	
0.239258	0.0454712	
0.240173	0.0448608	
0.240784	0.0445557	
0.241089	0.0442505	
0.241394	0.0442505	
0.241394	0.0442505	
0.241394	0.0445557	
0.241089	0.0448608	
0.240784	0.0454712	
0.240479	0.0460815	
0.239868	0.0469971	
0.239258	0.0479126	
0.238647	0.0488281	
0.238037	0.0500488	
0.237427	0.0512695	
0.237122	0.0524902	
0.237122	0.0534058	
0.237122	0.0543213	
0.237427	0.0549316	
0.237427	0.0552368	
0.237732	0.055542	
0.238037	0.0558472	
0.238342	0.0558472	
0.238342	0.0558472	
0.238647	0.0558472	
0.238647	0.055542	
0.238342	0.0552368	
0.237427	0.0552368	
0.235901	0.0549316	
0.23407	0.0552368	
0.231934	0.0552368	
0.229797	0.055542	
0.227356	0.0561523	
0.225525	0.0567627	
0.223999	0.0570679	
0.223083	0.0576782	
0.222473	0.0579834	
0.222168	0.0585938	
0.222168	0.0585938	
0.223083	0.0585938	
0.223999	0.0585938	
0.225525	0.0579834	
0.227661	0.057373	
0.229797	0.0567627	
0.232239	0.0558472	
0.234985	0.0546265	
0.237427	0.0534058	
0.240173	0.0518799	
0.242615	0.0506592	
0.244446	0.0494385	
0.245972	0.0485229	
0.246582	0.0476074	
0.246582	0.0473022	
0.245972	0.0469971	
0.245056	0.0469971	
0.243225	0.0473022	
0.241394	0.0479126	
0.239563	0.0488281	
0.237732	0.0500488	
0.235901	0.0512695	
0.23407	0.0524902	
0.232544	0.0537109	
0.231323	0.0549316	
0.230408	0.0558472	
0.229797	0.0567627	
0.229797	0.057373	
0.229797	0.0579834	
0.230103	0.0582886	
0.230713	0.0582886	
0.231323	0.0582886	
0.231934	0.0576782	
0.232544	0.057373	
0.232849	0.0564575	
0.233154	0.055542	
0.233154	0.0546265	
0.233154	0.0534058	
0.232544	0.0521851	
0.231934	0.0512695	
0.231018	0.0500488	
0.229797	0.0491333	
0.228577	0.0482178	
0.227356	0.0476074	
0.226135	0.0469971	
0.224609	0.0463867	
0.223389	0.0460815	
0.222473	0.0460815	
0.221558	0.0457764	
0.220947	0.0457764	
0.220642	0.0457764	
0.220642	0.0460815	
0.220947	0.0460815	
0.221558	0.0463867	
0.222778	0.0466919	
0.223999	0.0466919	
0.225525	0.0469971	
0.227051	0.0469971	
0.228882	0.0469971	
0.230713	0.0469971	
0.232239	0.0469971	
0.233765	0.0469971	
0.235291	0.0466919	
0.236511	0.0463867	
0.237427	0.0460815	
0.238037	0.0457764	
0.238342	0.0454712	
0.238342	0.045166	
0.238037	0.045166	
0.237427	0.045166	
0.236816	0.0448608	
0.235901	0.0448608	
0.23468	0.0448608	
0.233459	0.0445557	
0.231628	0.0445557	
0.229492	0.0445557	
0.227356	0.0448608	
0.224609	0.0448608	
0.222168	0.0448608	
0.220032	0.0448608	
0.218201	0.0448608	
0.21698	0.0448608	
0.216064	0.0448608	
0.215454	0.0448608	
0.214844	0.0445557	
0.214539	0.0448608	
0.213928	0.0448608	
0.213928	0.045166	
0.214233	0.0454712	
0.214539	0.0457764	
0.215149	0.0457764	
0.216064	0.0457764	
0.21698	0.0460815	
0.218201	0.0460815	
0.219116	0.0460815	
0.219727	0.0463867	
0.220337	0.0466919	
0.220947	0.0466919	
0.221252	0.0469971	
0.221558	0.0469971	
0.221863	0.0466919	
0.221558	0.0466919	
0.221252	0.0463867	
0.220642	0.0460815	
0.220032	0.0457764	
0.219116	0.0454712	
0.218811	0.045166	
0.218201	0.045166	
0.217896	0.0448608	
0.21759	0.0445557	
0.21759	0.0439453	
0.21698	0.043335	
0.216675	0.0427246	
0.21637	0.0418091	
0.216064	0.0408936	
0.216064	0.039978	
0.216064	0.0387573	
0.216675	0.0372314	
0.217285	0.0357056	
0.218201	0.0338745	
0.219421	0.0317383	
0.220642	0.0289917	
0.222473	0.0262451	
0.224609	0.0228882	
0.227051	0.0195313	
0.229797	0.015564	
0.232849	0.0112915	
0.236206	0.00701904	
0.239868	0.00213623	
0.24353	-0.00274658	
0.247498	-0.00793457	
0.25177	-0.0134277	
0.256042	-0.0189209	
0.260315	-0.0247192	
0.265198	-0.0305176	
0.269775	-0.0366211	
0.274658	-0.0424194	
0.279236	-0.0479126	
0.283813	-0.0537109	
0.288086	-0.0592041	
0.292358	-0.0643921	
0.296631	-0.0698853	
0.300598	-0.0750732	
0.304871	-0.0802612	
0.308838	-0.0854492	
0.31311	-0.090332	
0.317383	-0.0949097	
0.321655	-0.0994873	
0.326233	-0.104065	
0.330811	-0.108643	
0.335083	-0.11322	
0.33905	-0.117493	
0.343018	-0.121765	
0.346375	-0.126038	
0.350037	-0.130005	
0.353088	-0.133972	
0.35614	-0.137329	
0.358887	-0.140381	
0.361633	-0.142822	
0.364075	-0.145264	
0.366211	-0.147095	
0.368042	-0.148621	
0.369873	-0.149841	
0.371399	-0.150757	
0.37262	-0.151672	
0.373535	-0.152283	
0.374451	-0.152588	
0.374756	-0.152283	
0.374756	-0.151978	
0.374146	-0.151062	
0.373535	-0.150452	
0.372925	-0.149536	
0.372009	-0.148621	
0.371399	-0.147705	
0.371094	-0.147095	
0.370483	-0.14679	
0.370178	-0.146484	
0.370178	-0.146484	
0.370178	-0.14679	
0.370178	-0.14679	
0.370483	-0.147095	
0.370483	-0.1474	
0.371094	-0.147705	
0.371704	-0.148315	
0.372925	-0.148621	
0.374146	-0.149231	
0.375671	-0.149536	
0.377197	-0.150146	
0.378723	-0.150757	
0.379944	-0.151062	
0.381165	-0.151367	
0.38208	-0.151672	
0.38269	-0.151367	
0.382996	-0.151062	
0.38269	-0.150452	
0.38208	-0.149536	
0.38147	-0.148621	
0.380249	-0.1474	
0.378723	-0.146484	
0.376587	-0.145569	
0.374451	-0.144348	
0.372314	-0.143127	
0.369873	-0.141907	
0.367432	-0.141296	
0.365295	-0.140686	
0.36377	-0.140381	
0.362244	-0.140686	
0.361023	-0.141296	
0.360413	-0.142517	
0.360107	-0.144043	
0.360107	-0.145569	
0.360413	-0.1474	
0.361023	-0.149536	
0.362244	-0.151978	
0.36377	-0.154114	
0.365601	-0.156555	
0.367737	-0.158997	
0.370178	-0.161438	
0.37262	-0.163879	
0.375366	-0.166016	
0.377808	-0.167847	
0.380249	-0.169373	
0.38208	-0.170593	
0.383911	-0.171509	
0.385132	-0.171814	
0.386353	-0.171814	
0.386963	-0.171204	
0.387573	-0.170593	
0.388184	-0.169678	
0.388184	-0.168457	
0.387573	-0.167236	
0.386658	-0.166016	
0.385437	-0.16449	
0.384521	-0.162964	
0.383301	-0.161743	
0.382385	-0.160217	
0.38147	-0.158997	
0.380554	-0.157776	
0.379639	-0.15686	
0.378723	-0.15564	
0.377808	-0.154724	
0.376892	-0.153503	
0.375977	-0.152588	
0.375061	-0.151978	
0.374146	-0.151062	
0.373535	-0.150452	
0.372925	-0.149841	
0.37262	-0.149536	
0.372009	-0.149231	
0.371704	-0.148926	
0.371399	-0.148621	
0.371094	-0.148621	
0.370789	-0.148621	
0.370483	-0.148621	
0.370483	-0.148621	
0.370483	-0.148621	
0.370178	-0.148621	
0.370178	-0.148926	
0.370483	-0.148926	
0.370483	-0.149231	
0.371094	-0.149536	
0.371704	-0.149841	
0.372009	-0.150146	
0.372314	-0.150146	
0.372314	-0.150146	
0.372314	-0.150146	
0.372314	-0.149841	
0.372314	-0.149536	
0.372009	-0.149231	
0.371704	-0.148621	
0.371399	-0.148315	
0.370789	-0.14801	
0.370483	-0.147705	
0.369873	-0.1474	
0.369568	-0.1474	
0.369263	-0.147095	
0.368958	-0.14679	
0.368652	-0.14679	
0.368958	-0.14679	
0.368958	-0.14679	
0.369263	-0.147095	
0.369263	-0.1474	
0.369568	-0.147705	
0.369873	-0.148315	
0.370178	-0.148621	
0.370483	-0.148926	
0.370789	-0.149231	
0.370789	-0.149231	
0.370789	-0.148926	
0.370483	-0.148621	
0.369873	-0.148621	
0.369263	-0.148315	
0.368347	-0.14801	
0.367126	-0.1474	
0.366211	-0.147095	
0.365295	-0.146484	
0.364075	-0.145874	
0.363464	-0.145264	
0.362549	-0.144653	
0.361938	-0.144043	
0.361633	-0.143127	
0.361328	-0.142822	
0.361328	-0.142517	
0.361633	-0.142212	
0.361938	-0.142517	
0.362854	-0.142822	
0.36377	-0.143127	
0.36499	-0.143738	
0.366516	-0.144653	
0.367737	-0.145264	
0.368958	-0.146179	
0.369873	-0.14679	
0.370789	-0.147705	
0.371399	-0.148315	
0.372009	-0.148621	
0.372314	-0.148926	
0.372314	-0.149231	
0.372314	-0.149231	
0.372009	-0.149231	
0.371094	-0.148926	
0.370178	-0.148621	
0.368958	-0.14801	
0.368042	-0.147095	
0.367126	-0.146484	
0.366516	-0.145569	
0.366211	-0.144653	
0.366211	-0.143738	
0.366516	-0.143127	
0.367432	-0.142517	
0.368347	-0.142212	
0.369873	-0.142212	
0.371399	-0.142517	
0.373535	-0.143127	
0.375977	-0.144043	
0.378723	-0.145569	
0.38208	-0.147095	
0.385742	-0.148926	
0.389404	-0.151062	
0.393066	-0.153503	
0.396423	-0.155945	
0.39978	-0.158386	
0.402832	-0.161133	
0.405884	-0.163879	
0.40863	-0.166626	
0.411377	-0.169067	
0.414124	-0.171509	
0.416565	-0.173645	
0.418396	-0.175781	
0.419922	-0.177612	
0.421143	-0.179749	
0.422363	-0.181274	
0.423279	-0.1828	
0.424194	-0.184326	
0.42511	-0.185242	
0.426025	-0.186157	
0.426636	-0.187073	
0.427246	-0.187683	
0.427551	-0.187988	
0.427856	-0.188293	
0.428162	-0.188599	
0.428467	-0.188904	
0.428772	-0.188904	
0.429077	-0.189209	
0.429382	-0.189209	
0.429688	-0.189514	
0.429688	-0.189819	
0.429688	-0.189819	
0.429382	-0.190125	
0.429077	-0.190125	
0.428467	-0.19043	
0.427856	-0.19043	
